"Time","Events","ExG97","ExG98","ExG99","ExG100","ExG101","ExG102","ExG103","ExG104","ExG105","ExG106","ExG107","ExG108","ExG109","ExG110","ExG111","ExG112"
0:18:04.753,,406.672,981.133,106.632,-322.327,239.223,-300.582,-191.042,236.615,-427.076,-334.649,-298.801,651.607,-344.059,348.662,-433.778,-318.279
0:18:04.753,,413.215,997.103,108.303,-327.580,243.153,-305.411,-194.177,240.405,-433.953,-339.994,-303.599,662.198,-349.747,354.374,-440.851,-323.491
0:18:04.754,,388.360,856.798,53.819,-290.339,194.919,-237.075,-207.124,172.926,-390.660,-323.043,-234.158,654.873,-333.194,320.514,-323.567,-303.030
0:18:04.754,,376.051,825.786,49.811,-280.295,187.128,-227.163,-201.741,164.900,-377.453,-312.972,-224.280,635.677,-322.848,309.753,-308.955,-293.378
0:18:04.755,,371.175,601.863,-37.679,-248.759,133.483,-107.022,-206.247,62.010,-303.287,-287.755,-165.492,657.054,-267.644,236.287,-137.663,-300.271
0:18:04.755,,358.782,578.113,-40.047,-237.909,128.833,-95.526,-198.298,56.858,-291.527,-280.845,-160.657,638.529,-258.004,225.452,-129.031,-294.720
0:18:04.756,,348.483,557.598,-37.929,-230.991,125.592,-94.177,-193.111,53.780,-280.983,-271.388,-154.569,620.880,-249.406,218.638,-125.893,-286.558
0:18:04.756,,336.363,541.137,-37.863,-226.371,122.814,-89.073,-187.603,50.153,-272.803,-262.463,-149.791,601.772,-239.673,211.335,-121.564,-276.438
0:18:04.757,,325.633,525.077,-34.950,-217.737,118.300,-86.515,-181.150,50.160,-263.963,-256.029,-144.818,584.339,-233.503,205.462,-120.944,-269.327
0:18:04.757,,315.598,508.307,-34.781,-210.989,115.488,-85.336,-174.263,50.246,-256.283,-245.167,-140.285,565.257,-226.702,198.189,-116.480,-262.761
0:18:04.758,,304.983,493.588,-34.349,-204.607,110.946,-81.974,-168.609,46.388,-247.091,-238.651,-136.567,550.220,-219.915,192.254,-112.192,-254.300
0:18:04.758,,293.983,478.840,-31.317,-199.428,107.919,-78.203,-161.694,46.901,-240.392,-231.754,-131.325,531.599,-216.760,187.094,-107.865,-247.680
0:18:04.759,,288.895,464.789,-29.037,-193.823,106.578,-76.137,-158.561,48.192,-234.337,-224.392,-128.632,517.383,-211.563,177.951,-107.164,-240.076
0:18:04.759,,281.125,450.918,-29.373,-186.660,105.572,-72.065,-150.706,45.756,-226.871,-218.361,-125.859,500.205,-205.965,171.052,-104.674,-234.007
0:18:04.760,,271.281,435.516,-27.997,-180.177,102.996,-69.754,-146.418,44.515,-219.744,-210.897,-121.428,483.421,-197.194,166.374,-101.700,-228.778
0:18:04.760,,265.318,420.082,-27.010,-174.014,98.960,-69.783,-140.561,43.296,-211.901,-205.403,-117.305,469.979,-192.291,161.540,-100.217,-220.642
0:18:04.761,,255.178,409.800,-27.445,-168.026,93.105,-69.151,-136.536,42.266,-207.024,-200.377,-112.532,456.394,-186.088,158.046,-93.658,-214.021
0:18:04.761,,247.879,397.718,-25.790,-164.208,89.597,-66.450,-134.921,40.764,-199.599,-193.001,-108.922,442.583,-180.465,155.104,-92.382,-208.032
0:18:04.762,,240.647,387.143,-26.384,-159.696,87.419,-63.972,-132.526,39.454,-195.266,-186.632,-104.737,431.046,-174.740,148.921,-89.986,-200.630
0:18:04.762,,231.722,375.054,-26.331,-158.004,85.142,-60.368,-126.270,41.523,-187.047,-180.900,-101.752,414.299,-170.009,144.590,-88.034,-193.581
0:18:04.763,,226.361,361.443,-22.917,-152.185,82.655,-58.908,-122.691,37.070,-182.070,-176.246,-99.774,403.019,-164.371,140.773,-83.250,-188.825
0:18:04.763,,218.391,350.705,-24.399,-148.270,80.110,-57.842,-119.607,36.277,-177.213,-170.364,-97.593,391.461,-159.160,136.121,-77.150,-181.556
0:18:04.764,,210.515,341.716,-23.729,-143.277,77.637,-56.213,-113.845,35.077,-172.092,-166.806,-96.367,380.921,-154.459,132.261,-76.999,-174.467
0:18:04.764,,204.453,330.259,-22.062,-138.415,75.272,-53.789,-112.789,30.476,-168.026,-161.466,-93.025,368.741,-147.705,130.386,-73.379,-168.883
0:18:04.765,,199.905,319.072,-24.038,-133.306,72.044,-51.960,-109.798,31.482,-163.971,-157.049,-88.460,357.279,-142.431,125.865,-70.830,-163.715
0:18:04.765,,193.447,310.191,-21.139,-129.253,69.925,-52.200,-107.945,29.311,-160.085,-150.949,-85.229,346.912,-137.665,121.202,-68.453,-158.187
0:18:04.766,,186.801,302.895,-21.471,-126.401,68.631,-48.837,-102.915,28.420,-155.043,-146.580,-83.241,337.453,-136.664,116.717,-66.442,-153.364
0:18:04.766,,179.334,291.918,-19.932,-122.426,65.184,-47.890,-100.251,27.034,-149.209,-140.715,-81.603,328.700,-130.675,113.629,-64.199,-148.813
0:18:04.767,,174.885,281.772,-18.863,-118.686,64.018,-46.026,-99.470,25.223,-143.491,-137.332,-79.518,317.781,-124.107,109.774,-62.810,-143.164
0:18:04.767,,169.204,273.758,-17.541,-115.285,63.210,-43.323,-95.600,23.989,-139.372,-133.937,-78.409,308.083,-124.112,108.512,-60.581,-138.666
0:18:04.768,,164.431,266.939,-16.652,-112.372,62.696,-40.814,-90.359,22.495,-135.715,-130.282,-73.243,297.988,-122.408,102.983,-59.194,-136.441
0:18:04.768,,162.437,258.703,-16.592,-108.476,60.135,-40.477,-86.023,22.289,-133.562,-126.126,-69.829,288.064,-116.458,98.151,-58.752,-133.549
0:18:04.769,,158.280,248.991,-14.649,-104.393,59.529,-40.724,-84.658,24.070,-129.583,-123.513,-68.531,280.014,-114.620,96.772,-57.346,-129.521
0:18:04.769,,153.890,243.574,-15.295,-99.688,57.463,-37.386,-82.039,24.018,-125.722,-119.938,-66.821,270.173,-112.119,92.646,-57.127,-125.744
0:18:04.770,,146.810,237.724,-13.047,-98.339,55.204,-37.280,-81.258,19.854,-121.007,-116.628,-63.951,262.983,-109.015,93.975,-54.978,-121.169
0:18:04.770,,144.999,228.826,-13.760,-96.159,54.294,-36.372,-77.555,21.220,-116.577,-111.367,-63.272,255.899,-104.238,88.215,-54.165,-120.107
0:18:04.771,,141.131,220.863,-12.835,-94.532,53.506,-35.844,-75.205,19.072,-114.311,-107.242,-61.181,247.527,-100.441,85.142,-49.847,-115.851
0:18:04.771,,137.214,214.022,-9.482,-89.865,48.000,-34.941,-74.820,17.541,-109.862,-104.000,-59.681,240.002,-96.747,82.704,-48.675,-111.505
0:18:04.771,,131.588,210.218,-11.285,-86.538,46.981,-34.438,-72.647,16.134,-106.275,-102.133,-58.506,234.143,-94.286,81.112,-46.948,-107.111
0:18:04.772,,128.632,204.143,-12.606,-83.912,44.069,-33.440,-70.643,14.568,-103.749,-97.763,-55.118,225.807,-91.119,79.537,-44.123,-104.150
0:18:04.772,,124.588,196.117,-12.676,-82.447,42.277,-31.615,-66.766,15.421,-99.490,-94.342,-55.112,218.585,-87.875,76.563,-42.674,-100.523
0:18:04.773,,119.627,191.500,-13.079,-78.187,40.587,-30.656,-66.471,14.012,-96.312,-90.177,-54.510,213.629,-82.868,74.376,-43.385,-98.195
0:18:04.773,,117.232,185.503,-9.745,-76.558,40.412,-30.563,-63.029,15.024,-95.469,-91.251,-51.960,205.313,-81.496,72.356,-41.454,-94.189
0:18:04.774,,111.162,180.347,-13.412,-76.711,39.206,-30.018,-61.364,13.957,-92.341,-86.120,-50.178,202.067,-80.072,70.911,-38.625,-88.847
0:18:04.774,,105.407,173.576,-13.752,-74.593,37.784,-28.313,-60.252,14.000,-88.502,-85.074,-46.051,196.541,-75.763,70.062,-37.673,-87.457
0:18:04.775,,103.216,170.566,-12.827,-70.104,37.210,-26.077,-59.283,13.207,-86.681,-81.335,-43.552,189.065,-74.508,64.893,-37.787,-86.049
0:18:04.775,,100.875,162.659,-14.558,-68.987,36.078,-27.894,-56.409,14.475,-83.132,-79.622,-42.728,182.703,-71.642,63.658,-33.897,-81.619
0:18:04.776,,94.326,158.331,-15.118,-65.997,35.209,-25.370,-55.198,14.659,-79.846,-75.415,-41.800,177.561,-69.721,60.493,-32.762,-79.306
0:18:04.776,,91.160,152.010,-13.586,-62.924,34.410,-22.485,-51.326,13.191,-78.146,-71.573,-41.354,171.313,-67.524,59.696,-33.519,-79.229
0:18:04.777,,88.017,148.689,-12.530,-60.734,34.046,-22.404,-49.604,15.125,-74.440,-70.851,-38.935,168.136,-68.149,57.617,-36.073,-77.964
0:18:04.777,,87.108,144.239,-10.523,-61.607,34.273,-19.528,-47.860,15.151,-72.078,-67.451,-36.990,162.588,-66.809,52.683,-36.544,-76.545
0:18:04.778,,84.898,139.900,-9.483,-58.120,33.398,-18.002,-44.702,13.440,-70.847,-67.905,-35.717,156.786,-65.810,51.521,-34.475,-74.786
0:18:04.778,,81.842,135.504,-8.636,-55.115,36.529,-16.853,-43.153,13.112,-66.251,-65.493,-35.311,152.127,-65.111,49.134,-37.963,-74.269
0:18:04.779,,79.636,131.079,-8.842,-53.680,34.376,-17.830,-42.928,14.165,-63.948,-60.318,-34.616,145.409,-62.217,47.288,-35.768,-71.851
0:18:04.779,,76.681,126.593,-8.444,-50.913,31.214,-17.037,-41.902,14.297,-64.637,-60.524,-30.577,143.893,-61.468,47.747,-33.091,-71.917
0:18:04.780,,74.203,121.026,-7.876,-47.893,29.084,-16.867,-40.496,12.701,-62.007,-60.507,-29.208,141.294,-60.445,45.423,-31.864,-66.464
0:18:04.780,,72.327,118.394,-8.355,-48.554,27.895,-18.618,-38.602,11.770,-60.187,-57.760,-29.852,138.824,-58.250,45.234,-28.017,-66.293
0:18:04.781,,71.996,113.572,-10.993,-48.460,27.106,-18.773,-39.360,10.777,-58.269,-53.965,-28.970,133.132,-54.313,44.194,-26.288,-61.315
0:18:04.781,,70.298,110.389,-8.584,-46.839,25.269,-17.440,-37.376,9.622,-58.426,-54.467,-29.031,127.986,-49.595,41.922,-24.926,-58.865
0:18:04.782,,69.318,108.748,-10.133,-45.705,23.472,-18.476,-37.877,9.905,-55.780,-52.410,-27.858,123.573,-47.749,41.615,-25.983,-54.797
0:18:04.782,,65.985,105.558,-8.449,-45.970,23.888,-17.395,-35.924,10.364,-55.941,-50.264,-26.220,121.413,-46.426,40.232,-25.588,-55.177
0:18:04.783,,63.933,101.251,-9.166,-45.100,21.909,-14.295,-36.280,8.726,-53.062,-49.229,-27.805,118.141,-42.870,40.150,-22.299,-54.030
0:18:04.783,,60.129,99.126,-8.952,-41.857,22.209,-14.729,-35.234,7.329,-50.230,-47.628,-26.617,112.294,-43.039,37.748,-19.604,-50.874
0:18:04.784,,58.106,96.651,-6.338,-41.610,24.508,-15.158,-34.444,4.946,-50.509,-45.299,-25.354,107.588,-41.772,36.553,-19.190,-48.586
0:18:04.784,,58.619,94.860,-5.612,-39.737,20.521,-13.975,-32.583,6.278,-49.746,-43.906,-25.621,104.531,-40.070,34.919,-21.169,-47.321
0:18:04.785,,58.212,92.455,-8.104,-38.729,20.975,-12.822,-32.223,7.840,-47.020,-44.755,-25.116,100.906,-39.332,35.675,-21.090,-46.751
0:18:04.785,,56.602,89.496,-6.997,-36.870,20.918,-11.500,-31.313,7.634,-46.750,-45.205,-23.418,97.546,-38.982,35.056,-20.445,-45.736
0:18:04.786,,53.147,86.172,-6.592,-36.098,19.276,-10.394,-28.057,6.214,-44.677,-42.766,-22.241,96.591,-37.486,31.909,-20.541,-44.542
0:18:04.786,,54.623,83.625,-5.109,-33.629,19.003,-11.814,-27.850,6.584,-43.433,-40.642,-23.112,93.544,-37.631,33.144,-21.586,-45.841
0:18:04.787,,52.368,82.546,-3.143,-36.018,19.702,-12.966,-26.562,5.373,-44.166,-40.005,-21.873,89.658,-35.550,32.245,-19.549,-42.130
0:18:04.787,,52.611,79.694,-3.406,-34.697,18.435,-10.791,-25.637,4.654,-41.787,-38.381,-20.966,86.457,-36.795,30.935,-19.404,-41.038
0:18:04.788,,50.664,76.794,-4.748,-32.397,17.489,-9.974,-27.033,4.657,-39.558,-36.794,-21.069,84.877,-34.210,29.730,-17.614,-40.776
0:18:04.788,,49.270,74.433,-4.400,-31.785,16.858,-9.309,-25.212,3.197,-40.358,-36.241,-20.824,84.435,-31.748,26.761,-16.822,-38.314
0:18:04.789,,48.604,71.723,-3.271,-29.328,20.034,-8.977,-26.189,2.648,-39.215,-35.002,-19.839,80.486,-33.052,26.452,-17.356,-37.712
0:18:04.789,,47.292,68.005,-6.697,-29.528,19.345,-8.023,-23.948,5.829,-38.135,-32.458,-19.427,78.091,-33.111,26.271,-16.727,-36.751
0:18:04.790,,42.980,66.473,-5.536,-28.109,18.059,-6.950,-19.790,5.804,-36.410,-33.347,-20.481,76.380,-31.003,23.482,-15.775,-35.649
0:18:04.790,,40.612,63.434,-4.865,-27.966,16.478,-8.810,-20.019,4.156,-34.365,-32.630,-17.609,75.003,-28.790,24.057,-14.699,-33.943
0:18:04.791,,39.930,63.324,-4.440,-28.106,16.527,-9.915,-21.187,4.268,-34.762,-30.638,-17.142,71.420,-26.331,25.822,-15.316,-33.569
0:18:04.791,,40.212,61.341,-3.936,-25.347,16.155,-9.203,-21.395,2.518,-35.496,-28.067,-16.083,69.796,-28.845,22.352,-13.610,-30.289
0:18:04.792,,40.801,59.162,-4.514,-26.074,14.023,-9.246,-20.295,0.581,-32.687,-25.918,-15.657,66.046,-25.186,23.643,-13.464,-31.292
0:18:04.792,,35.622,57.002,-6.790,-25.611,12.656,-10.240,-20.868,2.143,-30.309,-26.622,-17.551,64.790,-24.652,24.959,-9.498,-25.028
0:18:04.792,,31.641,53.953,-9.673,-23.050,12.196,-8.256,-20.581,2.866,-29.737,-25.819,-15.498,62.884,-21.554,24.197,-8.230,-25.232
0:18:04.793,,30.686,51.666,-7.314,-23.698,9.630,-10.513,-18.496,2.459,-29.739,-24.732,-13.275,61.548,-18.345,21.918,-8.531,-23.256
0:18:04.793,,33.177,51.843,-8.306,-23.436,9.730,-8.900,-19.264,-0.436,-26.399,-23.920,-13.422,58.473,-18.964,22.153,-9.506,-22.769
0:18:04.794,,29.307,50.085,-6.037,-22.324,9.420,-6.242,-20.818,1.589,-26.338,-22.854,-12.532,56.871,-19.194,23.804,-8.902,-25.968
0:18:04.794,,30.243,46.846,-5.608,-22.209,9.492,-7.455,-20.203,0.019,-23.910,-22.267,-11.025,58.272,-19.621,20.149,-7.326,-25.534
0:18:04.795,,28.513,43.496,-6.328,-20.118,10.089,-7.652,-19.015,0.016,-23.673,-20.170,-10.691,56.129,-19.058,19.234,-8.540,-22.313
0:18:04.795,,26.950,43.674,-6.297,-19.496,9.519,-7.849,-18.193,0.134,-23.032,-20.719,-10.334,56.932,-20.507,20.033,-7.873,-22.852
0:18:04.796,,29.827,43.104,-6.778,-18.753,7.689,-7.785,-15.642,-0.137,-23.444,-20.402,-9.136,54.172,-19.335,18.948,-8.925,-23.425
0:18:04.796,,28.299,43.724,-6.281,-19.846,8.881,-7.235,-16.114,-0.553,-23.349,-21.891,-8.682,52.300,-17.161,17.094,-8.494,-20.787
0:18:04.797,,24.184,42.883,-8.203,-20.054,8.203,-6.389,-15.501,-1.457,-19.084,-19.542,-10.894,52.103,-15.752,15.804,-7.822,-18.470
0:18:04.797,,23.522,38.464,-9.771,-17.156,8.701,-5.725,-14.533,1.333,-18.427,-19.384,-10.323,48.434,-16.136,17.773,-6.206,-20.469
0:18:04.798,,20.553,38.636,-7.282,-13.437,6.994,-5.921,-15.840,-0.892,-20.859,-16.624,-9.218,47.383,-15.944,18.166,-5.903,-19.698
0:18:04.798,,23.058,39.146,-4.868,-13.137,6.953,-3.260,-14.235,-0.593,-21.388,-18.028,-10.025,46.396,-17.856,15.875,-6.961,-21.119
0:18:04.799,,22.779,40.626,-4.483,-13.136,9.370,-1.838,-10.470,-0.290,-19.640,-17.742,-10.589,43.535,-18.210,11.114,-8.951,-21.952
0:18:04.799,,24.236,40.152,2.193,-12.094,11.692,-1.466,-9.931,1.857,-19.590,-19.241,-9.697,41.132,-19.181,8.182,-13.102,-25.166
0:18:04.800,,26.562,38.378,1.632,-10.355,12.072,-2.376,-7.223,2.037,-18.734,-18.533,-8.901,38.461,-22.533,8.545,-14.969,-24.008
0:18:04.800,,26.939,35.781,-0.906,-8.907,9.870,-2.723,-7.675,2.156,-17.816,-15.995,-8.575,38.610,-19.807,7.125,-14.894,-23.145
0:18:04.801,,26.384,34.276,-1.436,-10.065,9.334,-3.153,-8.664,1.811,-17.278,-15.233,-6.783,39.919,-20.831,7.230,-13.118,-22.304
0:18:04.801,,26.942,32.711,-1.079,-12.650,9.279,-3.592,-8.477,0.961,-16.161,-13.722,-7.357,36.481,-19.172,8.420,-11.742,-20.773
0:18:04.802,,23.913,32.463,-1.066,-11.756,10.403,-2.352,-9.805,-0.007,-17.159,-14.109,-6.967,34.306,-15.756,8.912,-11.223,-19.816
0:18:04.802,,20.877,31.517,0.292,-8.112,10.273,-2.228,-8.903,1.089,-18.971,-15.812,-7.003,31.757,-15.777,10.072,-11.131,-18.063
0:18:04.803,,21.431,31.484,-1.407,-7.612,9.427,-0.934,-8.044,0.189,-18.472,-16.351,-7.687,29.690,-16.701,8.865,-8.290,-15.576
0:18:04.803,,17.913,29.590,-2.344,-9.428,7.332,-0.900,-7.893,-0.027,-18.853,-15.258,-7.718,30.017,-14.867,13.044,-6.579,-14.097
0:18:04.804,,18.412,29.213,0.657,-10.020,7.741,-0.992,-9.546,-1.516,-16.847,-15.092,-9.299,31.445,-12.944,10.153,-7.809,-13.624
0:18:04.804,,18.941,29.715,0.807,-7.939,8.454,-1.137,-10.774,-0.230,-18.635,-15.636,-9.443,30.485,-12.162,8.608,-6.466,-14.656
0:18:04.805,,21.174,28.065,1.250,-7.446,9.382,-0.771,-9.227,-1.032,-17.754,-13.442,-9.041,29.461,-12.116,7.151,-8.260,-17.324
0:18:04.805,,21.192,28.185,1.608,-8.893,8.202,0.067,-8.041,-0.376,-15.298,-13.772,-9.035,28.499,-13.976,6.760,-8.035,-16.996
0:18:04.806,,18.134,27.787,0.949,-10.913,6.637,0.647,-6.327,1.042,-16.073,-13.254,-6.258,28.960,-13.980,6.939,-10.259,-13.975
0:18:04.806,,19.055,24.469,-0.826,-10.655,8.296,1.029,-7.292,-0.403,-15.305,-11.659,-6.802,27.484,-12.149,6.339,-7.564,-14.065
0:18:04.807,,17.340,25.808,-2.633,-6.341,6.908,-1.313,-7.483,0.768,-15.373,-9.414,-6.529,25.231,-12.278,5.636,-5.847,-14.378
0:18:04.807,,14.553,24.445,-0.956,-6.320,6.663,-2.452,-8.636,-0.103,-15.886,-9.552,-5.410,20.593,-9.124,7.619,-4.054,-11.257
0:18:04.808,,14.008,22.778,-0.920,-8.008,3.450,-3.351,-9.034,1.629,-15.485,-8.637,-4.881,22.529,-7.835,7.846,-4.655,-9.534
0:18:04.808,,14.566,21.417,-0.076,-4.741,3.495,-3.653,-9.642,-2.251,-14.613,-9.095,-4.886,23.021,-6.633,9.619,-4.837,-11.766
0:18:04.809,,14.869,20.841,1.256,-6.906,5.029,-2.354,-5.124,-3.449,-12.656,-9.330,-4.083,19.626,-8.122,6.923,-4.400,-12.242
0:18:04.809,,14.896,20.980,0.209,-5.972,3.950,-3.979,-6.949,-1.193,-14.550,-9.820,-4.762,20.710,-7.989,6.584,-3.386,-8.629
0:18:04.810,,16.985,19.599,0.870,-6.370,2.988,-2.934,-6.253,-0.394,-13.706,-11.157,-6.237,20.536,-8.824,7.672,-4.025,-8.626
0:18:04.810,,15.025,19.993,0.093,-7.513,3.454,-0.762,-5.327,-0.619,-12.916,-10.845,-7.382,18.814,-6.601,6.327,-3.683,-8.105
0:18:04.811,,13.858,15.727,0.735,-8.658,3.410,0.004,-5.676,-1.665,-10.111,-9.260,-5.351,19.878,-8.164,6.543,-3.188,-8.103
0:18:04.811,,13.185,15.524,1.746,-6.318,5.350,-0.284,-6.022,-4.266,-8.639,-9.840,-5.105,20.901,-8.935,7.044,-5.913,-8.465
0:18:04.812,,11.057,17.363,2.983,-5.860,5.487,-2.840,-5.371,-2.390,-9.395,-7.594,-4.913,20.107,-7.964,5.180,-5.271,-10.669
0:18:04.812,,12.105,16.657,2.579,-7.490,5.029,-0.918,-6.887,-3.325,-10.502,-8.124,-4.558,19.968,-7.435,5.423,-3.321,-9.135
0:18:04.813,,12.399,17.506,-0.065,-5.970,3.810,-0.567,-6.009,-3.628,-10.215,-7.692,-1.928,20.185,-9.238,4.343,-4.430,-8.496
0:18:04.813,,8.875,16.580,-2.410,-4.744,3.645,0.469,-5.082,-5.204,-7.408,-7.758,-3.098,17.743,-7.047,7.553,-4.097,-8.155
0:18:04.813,,8.052,16.741,-1.698,-6.235,5.029,-1.113,-5.370,-2.438,-7.408,-6.177,-1.259,17.105,-6.898,4.555,-4.576,-8.448
0:18:04.814,,8.361,15.450,-0.716,-3.946,3.314,-2.717,-5.823,-2.260,-10.341,-6.761,-2.092,15.682,-5.400,5.258,0.227,-8.269
0:18:04.814,,8.526,12.498,0.013,-5.175,4.263,-0.807,-3.992,-4.109,-8.389,-8.225,-3.191,15.285,-7.200,6.567,0.981,-7.088
0:18:04.815,,8.508,11.308,-1.468,-6.934,2.126,-1.735,-3.676,-3.921,-7.193,-5.894,-2.350,16.731,-5.289,6.352,-0.730,-5.895
0:18:04.815,,9.946,12.237,-0.915,-6.321,2.410,-1.658,-6.191,-2.065,-8.598,-5.347,-2.788,17.318,-3.520,5.105,-2.538,-6.981
0:18:04.816,,7.548,11.315,-0.914,-4.377,3.391,-1.131,-6.467,-1.224,-9.332,-4.845,-3.068,16.114,-2.675,4.867,-4.740,-4.584
0:18:04.816,,6.916,12.188,-0.922,-1.986,3.269,-0.310,-4.762,-2.019,-8.365,-7.081,-0.424,13.912,-4.550,4.410,-3.376,-6.877
0:18:04.817,,6.603,11.367,-1.763,-4.576,2.881,0.774,-3.970,-1.520,-7.162,-6.552,-1.789,15.674,-5.507,4.569,-1.993,-6.902
0:18:04.817,,6.331,11.461,0.851,-2.520,3.358,0.290,-4.211,-1.743,-8.568,-3.976,-1.544,13.618,-6.224,0.856,-0.581,-7.316
0:18:04.818,,6.408,11.543,-0.075,-2.780,4.320,1.433,-3.233,-1.584,-6.616,-5.616,-0.893,10.651,-7.013,0.545,-1.827,-5.339
0:18:04.818,,6.227,11.096,-0.115,-4.514,2.539,-0.478,-3.759,-1.327,-4.059,-3.930,-0.974,12.369,-6.540,3.967,-3.837,-6.558
0:18:04.819,,5.631,9.038,-1.593,-2.864,3.746,-0.414,-3.454,-2.841,-3.503,-1.326,-1.052,12.244,-8.150,4.007,-3.256,-6.203
0:18:04.819,,5.136,9.042,-1.274,-1.602,3.199,1.131,-3.459,-2.454,-5.129,-2.258,-1.637,11.052,-6.440,3.928,-2.915,-6.246
0:18:04.820,,5.697,9.547,-0.355,-4.202,5.667,2.749,-4.499,-0.393,-4.646,-2.729,-2.484,8.741,-6.433,2.144,-1.812,-6.902
0:18:04.820,,5.422,9.346,-1.001,-4.267,3.694,2.437,-3.855,-1.921,-4.678,-4.151,-2.127,10.307,-6.893,3.635,-0.418,-5.661
0:18:04.821,,6.172,10.258,-1.018,-1.290,3.413,2.863,-6.419,-1.884,-4.527,-3.160,-2.237,11.679,-6.834,1.965,-3.064,-5.799
0:18:04.821,,5.297,10.990,-1.007,-1.254,4.271,1.456,-5.091,-1.760,-6.329,-2.293,-2.144,11.949,-5.019,1.323,-3.690,-6.829
0:18:04.822,,6.618,8.530,-0.926,0.433,3.881,-0.332,-3.269,-3.778,-5.445,-2.137,-4.135,8.488,-4.198,1.596,-1.129,-4.264
0:18:04.822,,6.623,8.802,-0.267,-1.119,1.133,-0.421,-5.491,-4.356,-2.664,-3.054,-2.303,11.063,-3.921,2.208,-1.390,-4.926
0:18:04.823,,5.922,8.085,-1.947,-2.432,2.337,1.594,-3.630,-3.151,-4.349,-3.280,-2.426,10.061,-2.197,3.465,-0.698,-7.246
0:18:04.823,,4.785,8.891,-0.810,-1.945,4.075,1.129,-2.694,-3.397,-5.864,-4.029,-0.100,5.662,-1.682,2.282,-0.681,-5.527
0:18:04.824,,5.939,6.443,-1.637,-1.085,2.795,-0.438,-2.404,-2.902,-5.747,-2.552,-1.727,7.817,-2.239,2.248,-0.388,-4.099
0:18:04.824,,4.443,6.572,1.383,-0.947,2.486,1.136,-3.087,-2.711,-6.137,-4.028,-3.332,10.733,-2.965,1.757,-1.945,-3.441
0:18:04.825,,3.737,7.562,-0.340,-1.543,2.945,0.341,-4.049,-0.618,-3.682,-3.230,-2.322,9.586,-2.878,0.511,-2.606,-3.431
0:18:04.825,,4.176,9.038,0.901,-0.131,2.133,0.381,-2.683,-1.169,-6.084,-2.608,-1.496,7.201,-3.863,1.409,-2.067,-5.049
0:18:04.826,,1.831,6.481,2.139,-1.475,2.681,-0.411,-4.092,-1.755,-4.521,-1.688,0.030,10.933,-4.187,2.242,-3.021,-5.147
0:18:04.826,,4.053,7.352,0.637,-0.217,3.138,1.232,-3.289,-3.976,-4.507,-2.942,-0.990,10.259,-5.714,2.198,-2.790,-4.357
0:18:04.827,,3.288,8.982,2.880,-0.290,3.273,-0.073,-2.852,-4.692,-4.428,-3.066,-0.481,7.518,-4.700,1.504,-3.260,-3.566
0:18:04.827,,2.751,7.794,1.470,-0.847,2.487,0.074,-2.954,-5.491,-4.467,-2.456,0.951,7.450,-2.852,1.752,-2.796,-2.918
0:18:04.828,,2.511,7.941,-0.524,-2.361,2.244,-0.091,-2.806,-4.654,-3.915,-1.780,0.138,8.491,-3.248,1.271,-0.671,-2.481
0:18:04.828,,3.142,7.549,0.915,-3.415,2.985,1.298,-5.303,-5.741,-3.046,-0.848,-0.923,10.334,-2.339,-0.709,-1.253,-2.560
0:18:04.829,,4.185,5.800,-0.560,-2.769,1.181,0.831,-5.263,-3.992,-2.392,-0.594,-1.234,9.592,-1.788,2.368,-1.345,-3.953
0:18:04.829,,2.599,7.629,-2.175,-2.082,-0.771,0.054,-4.055,-4.904,-2.480,-0.821,0.131,7.701,-0.709,3.510,-1.226,-2.473
0:18:04.830,,5.564,7.678,-1.165,-0.886,0.404,0.120,-6.451,-5.092,-4.402,-1.318,-2.226,6.764,0.619,4.225,-2.120,-1.757
0:18:04.830,,3.905,9.075,-1.307,-2.592,-0.881,-0.357,-6.680,-4.716,-2.730,-1.812,-1.010,7.990,0.185,3.303,-0.739,-1.708
0:18:04.831,,3.735,5.833,-0.867,-1.438,-2.495,-1.048,-4.848,-7.947,-3.239,-1.119,-0.654,8.019,1.520,4.271,0.807,-0.551
0:18:04.831,,3.432,2.900,-0.601,-0.953,-1.696,-1.168,-6.241,-6.266,-2.046,0.067,0.164,7.636,1.690,4.243,-1.238,0.078
0:18:04.832,,5.309,4.282,-0.130,-2.094,1.500,-2.330,-7.111,-5.142,-1.729,-1.208,-0.910,6.260,0.424,2.436,0.321,0.019
0:18:04.832,,4.323,5.530,-0.513,-2.170,0.292,0.065,-4.156,-6.134,-3.519,-1.894,0.956,6.272,-0.869,5.532,-1.217,-2.433
0:18:04.833,,1.994,6.278,1.372,-1.618,-2.764,0.307,-3.359,-4.981,-4.501,-1.547,1.148,7.793,0.611,3.982,-1.608,-3.188
0:18:04.833,,2.257,4.770,-0.861,-5.458,-0.764,-0.388,-4.264,-3.527,-1.440,0.298,0.206,9.915,-0.224,3.525,-1.239,-2.773
0:18:04.833,,2.425,3.596,-1.039,-3.212,0.521,-1.581,-4.165,-3.496,-2.332,1.172,-0.761,9.538,-0.749,2.451,-0.966,-1.518
0:18:04.834,,1.189,2.742,-2.276,-2.117,-2.208,-2.236,-3.275,-4.414,-2.560,1.467,0.629,7.308,-0.087,4.814,1.931,-0.924
0:18:04.834,,-0.754,6.518,0.880,-2.857,-0.618,0.214,-1.287,-4.941,-5.047,-0.705,0.860,4.548,-1.126,4.969,1.088,-1.874
0:18:04.835,,0.812,4.647,1.898,-2.502,1.138,0.505,-1.670,-3.870,-3.773,0.017,-0.939,3.715,-1.413,2.146,1.154,-1.744
0:18:04.835,,0.519,5.483,1.141,-1.734,4.637,3.071,-1.878,-4.271,-1.804,0.134,0.401,3.247,-3.766,-0.576,0.223,-4.834
0:18:04.836,,-0.036,5.737,2.146,0.562,2.688,2.708,0.956,-4.847,-1.867,-3.078,0.025,3.880,-1.502,-0.172,-1.509,-5.684
0:18:04.836,,-2.305,5.447,7.044,0.955,2.693,1.899,-0.950,-2.437,-3.160,0.113,1.078,3.117,-3.159,-1.578,-1.442,-7.429
0:18:04.837,,-0.861,3.679,5.531,2.969,3.568,0.515,-1.655,-1.544,-2.583,-0.256,1.979,3.537,-4.860,-2.565,-2.621,-4.760
0:18:04.837,,1.303,6.384,3.382,1.427,2.178,2.513,-0.126,-1.221,-0.833,1.469,-0.180,6.515,-6.837,-4.066,-6.765,-5.251
0:18:04.838,,1.806,4.214,4.616,0.619,2.597,3.041,-0.716,0.733,-2.022,0.518,0.136,6.002,-6.152,-1.721,-5.720,-8.047
0:18:04.838,,3.443,3.314,4.097,1.755,4.922,2.042,-1.743,-0.594,-0.964,0.716,-0.075,4.497,-5.467,-3.419,-5.015,-7.380
0:18:04.839,,3.468,4.504,2.578,0.293,3.865,2.244,1.067,-2.695,-1.109,0.874,0.479,4.316,-5.568,-2.870,-4.329,-7.103
0:18:04.839,,0.649,2.626,2.112,-1.533,3.842,4.365,0.466,-2.304,-2.291,2.522,0.337,4.286,-5.395,-1.623,-3.357,-4.709
0:18:04.840,,1.659,2.040,2.285,-0.398,3.509,4.913,-0.068,-2.696,-2.125,1.300,0.202,6.372,-6.116,-2.268,-3.658,-5.061
0:18:04.840,,0.178,1.836,1.870,0.413,2.627,3.215,1.355,-3.129,-1.734,0.884,1.295,7.796,-3.881,-1.331,-4.553,-6.818
0:18:04.841,,0.140,0.431,2.223,0.591,2.529,4.525,1.347,-3.126,-0.272,0.330,0.746,5.034,-4.144,-1.165,-4.139,-5.052
0:18:04.841,,0.457,1.035,0.406,1.381,2.010,2.889,1.307,-3.155,-0.215,1.213,-0.848,4.849,-3.629,-2.162,-3.729,-1.834
0:18:04.842,,1.189,1.815,1.180,1.394,1.265,0.573,-1.640,-1.739,-0.665,1.796,1.044,3.885,-3.824,-0.444,-3.331,-2.503
0:18:04.842,,-1.465,0.199,0.619,1.899,1.909,1.642,0.043,-1.047,-2.367,1.057,1.762,2.522,-1.019,0.157,-3.897,-2.138
0:18:04.843,,-1.746,1.175,0.389,0.251,1.730,1.728,-0.597,0.017,-3.549,0.228,2.271,1.504,-1.373,1.727,-0.511,-3.216
0:18:04.843,,-1.862,3.089,0.180,0.068,-0.827,1.937,-2.972,-2.078,-1.544,0.422,-0.407,3.880,-1.197,1.697,-0.429,0.025
0:18:04.844,,-2.238,2.594,-2.453,-1.558,-1.820,2.656,-1.293,-2.520,-1.188,1.286,0.232,2.464,-0.576,2.157,0.573,1.701
0:18:04.844,,-7.904,0.133,-6.837,-5.753,-3.003,-2.150,-3.816,-3.505,-1.325,3.498,2.737,3.673,5.403,6.554,5.942,6.369
0:18:04.845,,-6.487,1.804,-10.103,-6.269,-5.980,-2.866,-7.255,-5.931,-1.650,3.293,1.410,4.948,8.000,9.675,7.203,10.291
0:18:04.845,,-7.665,1.878,-11.320,-8.578,-9.870,-6.403,-10.347,-8.216,0.202,4.192,2.789,5.832,11.628,13.380,10.980,11.600
0:18:04.846,,-5.405,-0.298,-13.905,-9.472,-12.601,-12.211,-10.868,-8.304,1.317,4.163,2.448,5.942,15.640,15.900,15.341,12.226
0:18:04.846,,-7.902,1.483,-16.291,-11.297,-13.347,-11.373,-14.609,-9.922,3.132,3.634,3.263,5.096,18.006,17.494,17.816,14.810
0:18:04.847,,-6.274,0.211,-15.215,-9.966,-11.891,-10.055,-11.823,-9.981,1.576,2.876,4.754,5.642,14.040,16.620,15.408,14.193
0:18:04.847,,-5.050,1.644,-13.368,-6.200,-11.483,-10.710,-11.034,-8.897,-1.464,2.096,2.745,4.195,13.950,15.795,13.376,14.437
0:18:04.848,,-3.404,-0.005,-9.992,-8.165,-9.943,-9.580,-11.207,-8.439,-1.304,0.759,1.402,4.502,12.523,17.701,12.967,12.110
0:18:04.848,,-1.498,0.227,-11.643,-8.375,-8.346,-9.338,-11.623,-8.736,-2.313,1.119,0.791,5.151,13.340,14.199,13.765,13.238
0:18:04.849,,-6.045,0.418,-8.984,-7.310,-11.383,-9.841,-10.372,-12.137,-2.071,0.712,1.217,5.525,14.829,15.996,13.558,15.832
0:18:04.849,,-4.664,-1.882,-9.201,-7.137,-10.920,-7.675,-8.367,-11.363,-2.528,2.084,1.677,4.583,13.771,15.395,13.107,13.249
0:18:04.850,,-4.366,-1.710,-8.793,-6.192,-7.949,-8.513,-9.957,-12.786,-2.476,0.369,0.289,4.749,15.317,15.111,15.005,11.934
0:18:04.850,,-2.968,-1.126,-6.956,-5.240,-7.263,-7.166,-6.869,-12.057,-2.062,0.604,1.358,3.531,13.313,11.364,11.665,9.831
0:18:04.851,,-3.211,-0.149,-5.381,-4.111,-4.863,-3.056,-4.780,-8.293,-0.300,1.940,-0.606,2.065,7.074,7.841,8.645,7.242
0:18:04.851,,0.238,1.804,-0.733,-0.676,0.078,0.262,-3.324,-5.112,-2.253,-0.776,-0.048,2.110,4.157,2.423,-1.076,2.903
0:18:04.852,,5.165,3.388,2.303,2.899,3.751,1.492,2.279,-3.393,-1.086,-0.451,1.050,0.078,-3.491,-4.064,-5.548,-4.399
0:18:04.852,,6.463,4.552,8.938,4.728,5.118,5.603,5.459,-1.857,-1.699,1.124,-1.617,2.280,-10.572,-8.916,-9.552,-10.043
0:18:04.853,,10.773,7.500,12.822,5.508,9.232,10.541,7.520,1.003,-4.262,-0.572,-1.130,1.004,-13.358,-13.674,-16.072,-16.725
0:18:04.853,,10.896,6.023,16.046,8.292,11.584,13.351,8.349,1.937,-1.704,-1.618,1.220,0.561,-18.099,-17.660,-19.134,-20.082
0:18:04.854,,15.502,7.313,19.420,11.308,14.604,14.130,11.070,4.967,-1.761,-1.483,-2.042,-0.734,-21.345,-22.518,-23.822,-24.484
0:18:04.854,,14.532,7.467,16.700,11.560,13.384,11.769,11.452,3.379,-3.022,-0.260,-1.501,0.130,-19.618,-20.473,-22.718,-22.651
0:18:04.854,,9.206,5.456,11.573,10.116,12.025,12.276,9.541,6.356,-3.264,1.605,-0.753,-0.021,-20.250,-17.427,-16.794,-19.535
0:18:04.855,,4.585,2.147,8.661,7.634,8.965,9.904,9.163,7.582,-0.358,2.170,1.598,1.554,-16.142,-16.635,-14.988,-15.975
0:18:04.855,,2.578,1.154,4.777,5.704,9.640,7.199,8.049,5.668,0.701,0.738,2.083,2.702,-12.890,-13.977,-11.737,-12.497
0:18:04.856,,2.566,4.001,3.631,4.653,6.706,8.349,5.811,3.055,1.443,2.523,2.555,3.986,-11.623,-13.319,-11.780,-12.695
0:18:04.856,,1.557,1.514,2.659,2.805,7.231,7.651,7.005,2.968,0.942,4.180,3.115,1.191,-11.452,-9.198,-9.028,-13.086
0:18:04.857,,2.436,-1.210,4.647,0.975,7.692,6.531,6.670,5.140,1.964,4.152,2.251,2.255,-10.605,-11.315,-9.800,-11.741
0:18:04.857,,1.606,0.233,3.310,3.330,4.567,6.055,5.987,4.920,0.202,3.146,0.532,0.657,-10.822,-7.020,-7.665,-9.080
0:18:04.858,,3.308,-0.117,1.709,2.711,8.715,5.723,3.335,3.221,-1.431,2.381,2.140,2.640,-10.112,-7.220,-7.365,-9.634
0:18:04.858,,1.521,1.231,2.234,3.574,6.832,4.387,3.833,1.946,0.288,1.122,1.861,2.909,-12.492,-6.697,-5.370,-7.068
0:18:04.859,,1.804,2.736,1.921,2.609,5.088,2.550,3.796,1.424,0.561,3.107,0.299,3.126,-8.771,-7.348,-7.540,-5.321
0:18:04.859,,1.663,4.885,5.440,4.020,5.917,3.006,2.716,-0.239,-1.347,-0.413,-0.205,2.910,-7.041,-5.329,-9.530,-6.568
0:18:04.860,,5.979,5.147,5.170,5.550,5.342,4.998,2.946,-0.460,-1.309,1.158,-0.358,0.980,-9.192,-6.870,-8.478,-10.516
0:18:04.860,,6.716,5.453,5.961,4.694,2.186,6.032,1.324,0.666,-1.287,1.178,1.601,1.272,-10.758,-8.612,-6.707,-9.711
0:18:04.861,,4.396,5.360,6.063,4.299,4.531,5.361,1.961,0.850,-1.249,1.724,3.513,0.280,-9.669,-8.171,-6.382,-12.864
0:18:04.861,,5.644,4.249,7.559,4.854,5.986,6.723,4.331,2.620,-3.609,0.219,1.356,-0.589,-8.984,-9.514,-9.296,-11.564
0:18:04.862,,7.646,2.631,7.664,3.158,3.754,6.166,2.749,0.753,-1.928,1.369,2.580,1.718,-7.861,-9.147,-10.486,-10.747
0:18:04.862,,5.901,1.836,3.622,2.429,5.534,4.484,3.687,-1.801,-1.082,0.736,2.680,4.034,-7.941,-6.045,-10.169,-7.901
0:18:04.863,,3.186,0.591,3.607,-0.122,4.673,5.724,4.643,-0.878,-1.183,-0.164,0.635,3.802,-6.339,-5.220,-7.345,-5.590
0:18:04.863,,0.898,2.423,4.319,1.110,4.397,4.085,2.665,-0.624,-0.932,-0.234,0.286,3.069,-5.336,-6.682,-5.153,-4.168
0:18:04.864,,1.789,4.102,4.057,1.830,1.538,4.777,-0.630,-2.618,-1.115,0.960,-0.520,5.227,-5.137,-5.552,-4.855,-3.729
0:18:04.864,,2.237,4.536,0.323,-1.642,0.599,3.039,0.872,-1.102,0.354,0.034,2.094,1.942,-3.772,-3.233,-3.086,-3.312
0:18:04.865,,0.662,2.554,1.370,-1.326,1.152,2.039,1.459,-1.546,0.019,0.892,0.196,2.639,-2.565,-4.515,-0.281,-2.875
0:18:04.865,,0.453,2.850,2.381,0.852,-0.047,3.738,2.412,-2.525,-1.476,0.752,-0.779,3.547,-2.777,-4.272,-2.051,-3.181
0:18:04.866,,-0.029,1.404,3.174,0.722,0.104,4.030,2.046,-1.646,-3.083,1.812,0.594,3.367,-3.216,-3.849,-1.715,-3.681
0:18:04.866,,0.954,1.247,1.469,0.763,0.227,4.692,0.100,-2.580,-2.097,3.866,2.662,0.898,-3.518,-5.029,-1.412,-2.152
0:18:04.867,,2.705,1.936,2.761,1.525,-0.063,1.866,-1.946,-3.976,-1.822,2.367,2.372,0.047,-1.202,-1.604,-3.160,-1.834
0:18:04.867,,0.920,1.384,0.087,-0.389,1.541,2.059,0.449,-4.264,-3.866,0.667,1.373,0.857,0.110,-2.134,0.372,0.937
0:18:04.868,,0.269,-0.092,-2.468,-2.607,1.467,0.138,1.088,-4.716,-1.058,2.051,0.030,2.638,1.493,0.386,0.299,0.950
0:18:04.868,,1.780,0.286,-0.284,-2.938,-1.146,0.371,-0.581,-2.338,-2.380,3.482,-0.916,-0.742,1.427,2.954,0.764,0.362
0:18:04.869,,1.813,1.689,0.434,-2.613,-1.316,1.561,-1.115,-1.144,-1.912,1.406,1.040,-1.128,-0.522,1.233,1.205,-0.508
0:18:04.869,,1.287,0.615,-1.977,-1.945,-0.572,1.858,-1.805,-2.332,0.460,2.445,1.218,-1.504,-1.785,1.579,1.445,0.946
0:18:04.870,,-0.237,1.365,-2.862,-3.168,-1.423,0.441,-2.022,-2.710,1.285,2.150,1.208,-0.220,1.951,1.481,1.193,1.461
0:18:04.870,,-0.622,1.037,-2.293,-1.533,1.267,0.704,-1.854,-2.989,-1.419,1.479,-0.239,1.630,1.451,2.149,-0.196,1.374
0:18:04.871,,-0.196,1.655,-1.385,-2.045,0.518,0.441,-2.729,-2.473,-1.347,3.260,-0.008,-1.411,0.468,0.858,0.937,3.371
0:18:04.871,,-3.980,-0.745,-2.987,-1.941,-0.704,0.450,-1.176,-3.722,-0.693,2.175,2.315,-0.385,3.879,3.768,0.910,2.769
0:18:04.872,,-4.376,1.158,-4.113,-1.489,-0.807,1.373,-2.943,-3.161,-1.425,1.179,2.319,-0.481,3.309,5.015,2.719,1.795
0:18:04.872,,-6.343,1.448,-3.195,-2.735,-1.434,-0.631,-2.444,-1.123,0.997,0.335,1.691,0.260,4.328,4.451,2.196,2.107
0:18:04.873,,-8.391,2.457,-3.640,-2.968,-1.064,0.895,-1.382,-2.070,0.007,2.039,1.920,0.762,2.429,3.889,2.772,2.350
0:18:04.873,,-6.490,-0.357,-6.123,-1.651,0.071,-0.950,-0.393,-3.431,-0.072,2.040,2.283,2.004,3.430,2.885,4.316,2.429
0:18:04.874,,-6.524,0.580,-3.746,-2.004,1.294,-0.240,-2.395,-1.693,0.436,0.638,2.030,3.584,3.070,3.130,3.105,-1.293
0:18:04.874,,-2.800,0.538,-1.133,-3.832,-0.151,-0.814,-2.195,-1.497,-0.812,0.114,0.260,3.058,2.983,3.255,2.468,0.548
0:18:04.875,,-1.344,1.269,-0.931,-2.648,-0.790,-0.153,-2.956,-1.735,-2.154,1.907,1.227,2.896,2.825,1.620,0.855,0.004
0:18:04.875,,-3.059,-0.877,-0.266,-3.845,-1.051,-0.901,-0.559,-2.971,0.007,3.599,2.323,2.329,2.651,-0.116,2.322,0.455
0:18:04.875,,-3.236,0.547,-2.014,-3.363,-1.712,-1.521,-0.417,-2.907,-0.508,3.504,3.938,2.848,1.700,0.710,2.610,-0.065
0:18:04.876,,-2.147,0.545,-2.154,-3.074,-0.894,1.318,-0.756,-4.317,-1.332,1.120,2.316,3.334,2.135,1.254,1.987,0.764
0:18:04.876,,-2.376,1.617,-2.982,-2.258,-0.066,1.034,-2.994,-4.103,-1.178,-0.363,2.414,3.906,3.164,0.834,1.204,2.140
0:18:04.877,,-1.604,-2.632,-3.988,-1.306,-0.452,2.097,-0.611,-4.281,0.019,2.029,1.431,3.649,0.229,2.968,1.134,1.392
0:18:04.877,,-1.846,-0.384,-1.878,-2.501,-1.952,-1.606,-1.302,-1.309,1.212,0.684,4.253,2.189,1.314,1.227,0.912,0.978
0:18:04.878,,-1.158,-0.884,-1.746,-4.268,-0.859,-0.825,0.268,-3.280,0.703,2.610,3.221,3.710,1.155,0.875,0.059,0.302
0:18:04.878,,0.709,-2.224,0.793,-3.596,-1.448,1.121,-2.253,-0.877,0.524,4.526,2.758,2.124,-0.110,-0.033,-0.695,-1.234
0:18:04.879,,-1.982,-0.163,1.004,-0.486,-0.191,1.789,-0.074,-2.902,2.253,0.809,1.961,2.603,-0.844,0.114,-2.189,-1.625
0:18:04.879,,-1.128,-0.406,0.729,-1.097,1.061,2.226,0.315,-1.907,1.824,1.503,2.837,3.128,-2.723,-1.872,-1.037,-3.398
0:18:04.880,,1.698,-0.660,0.424,-1.518,1.393,1.740,-1.003,-1.824,0.663,3.004,2.523,5.170,-1.318,-2.010,-3.370,-4.945
0:18:04.880,,3.749,1.541,1.571,0.003,2.218,2.841,0.259,-2.193,-0.479,0.996,2.436,2.325,-3.665,-1.074,-4.959,-5.535
0:18:04.881,,3.921,2.174,2.836,0.616,-0.444,3.370,0.326,-3.422,0.367,2.560,2.090,1.262,-3.274,-4.980,-4.106,-3.175
0:18:04.881,,3.713,3.671,3.067,-2.197,-1.028,2.073,0.353,-1.814,-1.680,0.822,2.967,-1.084,-1.394,-2.853,-1.670,-2.858
0:18:04.882,,4.498,1.048,3.856,-1.632,0.523,1.767,-0.540,-1.162,-2.115,-1.473,0.302,1.698,-0.810,-2.777,-1.478,-1.673
0:18:04.882,,2.857,-0.172,1.978,0.362,0.306,1.414,0.728,-0.776,-1.751,0.472,1.618,1.129,-2.597,-1.180,-2.600,-1.741
0:18:04.883,,2.887,1.291,1.037,-0.323,0.679,0.745,0.934,-2.216,-1.956,0.189,-1.464,1.360,-1.667,0.201,-0.689,-0.912
0:18:04.883,,2.517,3.242,0.216,0.913,-0.872,0.455,0.015,-3.441,-2.385,0.018,-0.982,2.504,0.378,-1.188,0.914,-2.311
0:18:04.884,,2.274,0.294,0.207,-0.366,-0.117,2.554,0.313,-2.836,-0.992,1.591,1.363,0.766,-1.156,-1.607,-0.741,-1.678
0:18:04.884,,0.582,1.785,-0.513,-1.077,1.995,1.096,-0.482,-2.064,-1.343,-0.594,1.549,2.077,-1.209,-1.308,-1.083,0.593
0:18:04.885,,2.581,3.570,-1.619,-0.602,0.825,0.013,0.738,-2.259,-2.102,1.042,-0.256,1.396,-0.598,-2.498,-1.407,1.222
0:18:04.885,,1.866,1.541,-1.827,-2.314,-1.615,0.592,-0.317,-3.733,0.696,-0.037,0.690,2.567,1.453,-0.898,0.506,0.688
0:18:04.886,,-0.414,0.028,0.767,0.617,0.005,2.387,-0.559,-1.634,0.428,-0.017,-1.616,-0.702,0.246,-0.902,-0.902,2.192
0:18:04.886,,0.600,0.894,-0.515,1.224,-0.483,2.501,-0.792,-0.336,-0.498,-1.393,0.180,-0.694,-0.326,-1.863,2.887,-1.494
0:18:04.887,,0.765,1.094,-1.221,-0.246,-0.440,2.570,-1.273,-4.196,-0.729,-0.037,1.242,0.755,-1.278,-0.186,3.196,0.033
0:18:04.887,,-0.168,1.480,0.737,-0.033,0.203,2.738,-0.935,-2.770,-0.668,0.331,-0.447,-1.531,-1.947,-0.411,2.897,0.509
0:18:04.888,,-0.120,2.611,-0.148,-0.856,-0.045,1.289,-1.352,-2.541,-2.176,2.345,-0.595,0.859,-0.323,-0.919,1.422,0.464
0:18:04.888,,0.446,1.940,0.752,0.135,0.880,1.186,-0.396,-2.457,-3.168,0.413,0.096,-0.334,-0.478,-1.681,2.148,0.415
0:18:04.889,,0.782,0.358,-0.300,0.261,0.386,1.556,0.338,-1.873,-1.251,0.382,0.804,-1.806,1.348,-0.137,0.299,-1.147
0:18:04.889,,2.118,0.089,-0.560,-0.081,1.067,-0.581,-0.880,-2.762,-1.009,-0.277,-0.887,0.492,1.324,-0.148,1.874,0.261
0:18:04.890,,-0.246,0.704,1.825,0.297,2.002,1.686,-0.858,-3.283,-0.646,-0.962,1.102,-0.150,1.165,-0.858,0.190,-2.029
0:18:04.890,,0.828,1.952,0.689,-0.970,-1.091,1.706,-0.424,-3.059,-2.890,-0.268,2.266,3.159,-0.015,-0.322,-0.044,-1.581
0:18:04.891,,2.757,0.762,1.350,2.419,-0.553,0.314,-1.294,-2.842,-2.602,2.373,-0.961,-0.218,1.344,-1.785,0.491,-1.566
0:18:04.891,,2.628,2.285,2.905,0.189,0.048,0.174,-2.605,-1.373,-2.276,1.080,0.758,-1.639,-0.453,-0.864,0.841,-1.776
0:18:04.892,,-0.752,3.665,0.052,-0.172,-0.521,2.084,0.863,-1.182,-0.512,0.243,-0.207,-1.435,-1.558,0.546,0.356,-1.428
0:18:04.892,,-0.067,1.649,0.142,-0.098,0.403,2.757,-0.910,-2.653,-0.622,0.521,0.793,-1.096,1.378,-0.018,-0.662,-1.524
0:18:04.893,,0.867,2.378,-0.521,-1.860,0.195,2.197,0.345,-3.901,-0.898,0.978,0.407,0.261,0.009,1.946,-0.383,-1.910
0:18:04.893,,2.993,3.516,0.281,-0.832,0.503,2.058,-1.376,-1.430,-1.156,0.715,-0.949,-0.978,-1.737,2.676,-1.193,-2.994
0:18:04.894,,-0.211,1.714,1.261,-0.387,-0.874,1.142,-1.670,-2.247,-1.101,0.019,0.582,2.174,0.666,2.071,-0.991,-2.226
0:18:04.894,,0.297,0.716,1.609,0.613,-0.758,1.306,-2.077,-1.930,-1.781,0.072,1.127,3.172,-2.492,1.661,-0.409,-1.124
0:18:04.895,,-1.900,1.450,-0.139,2.392,-0.680,2.177,0.209,-1.809,-1.675,0.396,1.341,0.082,-1.458,2.819,-0.388,-2.844
0:18:04.895,,-0.108,1.339,-1.949,1.655,-1.048,2.766,-1.241,-2.126,-1.826,1.759,1.159,0.195,-0.927,0.919,-0.920,0.238
0:18:04.896,,1.014,0.616,-4.389,-0.007,1.057,2.577,-0.727,-2.759,0.600,1.889,0.267,0.960,-1.369,-0.009,-1.428,1.663
0:18:04.896,,0.270,0.191,-4.610,-0.983,1.955,1.099,0.984,-2.130,-0.651,3.252,0.253,-0.360,0.248,0.476,-0.661,0.625
0:18:04.896,,-1.421,1.357,-1.869,0.412,-0.391,1.460,0.455,-3.843,0.230,0.907,1.537,0.169,1.284,0.433,1.110,-1.702
0:18:04.897,,-0.691,-0.211,-0.467,-0.574,0.654,4.070,0.384,-2.109,0.943,-0.109,1.670,2.076,-1.155,-1.741,-0.917,-1.741
0:18:04.897,,-2.135,1.017,1.259,2.034,-1.103,1.656,-0.566,-1.187,-0.752,0.358,1.220,2.748,-1.436,-2.520,-1.458,0.858
0:18:04.898,,-0.931,1.196,0.706,-0.101,-0.726,1.142,-0.643,-2.608,-0.807,1.219,0.671,2.937,-0.863,-0.782,-0.964,0.509
0:18:04.898,,-0.408,0.183,-0.496,-1.418,1.081,3.909,0.766,-1.016,-0.939,4.709,1.953,1.008,-3.601,-0.460,-1.305,-3.892
0:18:04.899,,1.141,0.540,-0.604,-0.740,-1.760,3.649,-0.264,-0.540,-0.272,1.602,3.128,2.898,-2.346,-2.252,-1.759,-2.363
0:18:04.899,,-2.172,0.269,-2.173,-1.334,-2.160,1.390,1.075,-1.201,0.004,1.620,3.533,2.594,-1.745,0.997,1.196,-1.886
0:18:04.900,,1.397,-1.350,-0.260,-2.751,0.214,0.295,0.050,-0.924,0.101,0.996,1.171,0.142,-0.733,-0.466,0.887,1.336
0:18:04.900,,-0.046,0.283,-2.138,-2.242,-1.148,0.969,-0.355,-0.493,-1.989,1.313,1.847,-1.197,0.609,1.420,0.626,2.616
0:18:04.901,,-0.722,0.484,-2.076,-1.560,0.167,3.862,0.011,0.322,-2.876,1.358,1.280,-0.934,1.264,0.529,-0.169,-0.972
0:18:04.901,,0.390,-0.286,-1.538,-1.144,0.154,1.314,0.453,-0.177,0.262,-0.397,2.187,-0.861,0.118,0.728,-0.608,-0.664
0:18:04.902,,1.569,-0.993,-1.741,-2.640,-2.606,-0.217,-0.578,-0.467,-0.064,2.120,2.488,0.204,0.454,0.478,0.954,1.103
0:18:04.902,,3.243,3.051,-2.908,-2.801,-3.047,-0.381,-0.608,-3.221,-0.434,1.220,0.798,0.263,-0.870,1.048,2.817,1.696
0:18:04.903,,0.572,3.333,-1.720,-3.561,-2.469,-0.956,-0.966,-2.470,2.453,1.365,2.212,0.105,1.102,-0.691,0.966,0.840
0:18:04.903,,1.643,1.481,-1.906,-4.564,-0.960,0.151,-1.056,-3.743,1.730,1.078,2.603,-0.738,1.091,2.261,1.331,-0.379
0:18:04.904,,2.562,1.270,-1.315,-3.542,-1.681,0.860,-1.812,-3.063,-0.257,0.489,1.423,-1.299,2.573,2.397,0.850,0.563
0:18:04.904,,2.360,1.972,-1.506,0.177,-2.464,0.255,-1.709,-2.944,-2.532,0.534,-0.048,-2.035,2.854,2.878,0.498,1.831
0:18:04.905,,0.701,2.593,-3.920,-1.327,-1.544,-0.868,-4.291,-3.228,-1.083,0.912,2.420,0.031,1.986,4.874,0.416,2.260
0:18:04.905,,-1.877,1.135,-3.865,0.293,-0.659,0.330,-3.314,-3.131,1.003,-0.866,1.204,-0.880,1.940,5.759,0.435,2.589
0:18:04.906,,-0.732,0.951,-2.067,-1.615,-0.277,0.307,-0.675,-4.618,1.766,-0.411,-0.892,0.346,2.920,2.572,1.290,1.152
0:18:04.906,,-3.023,-0.156,-3.950,-1.723,0.123,0.790,-0.009,-3.753,0.678,1.492,1.113,-1.140,3.577,1.181,2.890,1.887
0:18:04.907,,-0.743,-0.456,-3.411,-1.525,-0.118,1.554,-2.190,-1.871,0.711,2.946,-0.070,-2.024,4.932,0.217,1.349,0.777
0:18:04.907,,0.503,-1.817,-2.507,-1.846,-1.027,1.629,-0.337,-3.943,0.012,1.175,1.732,-1.206,3.235,-0.207,2.499,2.065
0:18:04.908,,1.684,0.300,-3.567,-0.991,1.206,0.480,-0.091,-1.661,-0.139,0.381,2.529,-2.359,-0.114,-0.288,0.285,2.438
0:18:04.908,,-3.123,0.778,-2.271,-0.737,2.463,-0.181,0.314,-1.561,-0.363,2.324,3.768,-1.612,1.149,-1.338,-0.027,0.327
0:18:04.909,,-2.842,0.471,-1.807,0.044,1.496,1.801,1.785,0.461,-3.032,3.535,2.797,0.526,-0.459,-1.942,-1.248,-1.512
0:18:04.909,,-0.724,-0.662,-0.152,1.948,2.889,4.645,2.361,-2.114,-3.218,0.903,-0.797,-0.634,-0.161,-2.151,-1.352,-0.735
0:18:04.910,,-0.913,-0.541,2.444,2.131,3.039,4.299,1.061,-1.489,-0.702,2.051,-2.211,-0.345,-0.585,-2.813,-2.746,-2.686
0:18:04.910,,1.247,2.524,2.218,1.466,2.312,5.401,2.689,-0.313,-2.949,-1.137,0.237,-2.006,-3.376,-1.996,-2.645,-3.785
0:18:04.911,,0.866,2.198,1.855,0.356,1.617,4.547,3.195,-0.353,-3.612,-1.809,-0.016,1.259,-2.589,-2.395,-2.224,-2.960
0:18:04.911,,0.331,0.267,0.000,1.861,4.260,2.745,2.803,-0.565,-2.500,1.172,0.653,0.112,-2.802,-4.129,-1.920,-2.378
0:18:04.912,,1.284,2.059,1.191,0.089,2.454,5.475,1.021,-0.015,-1.103,0.677,0.494,-0.334,-3.173,-4.259,-3.790,-2.130
0:18:04.912,,3.908,0.976,3.183,0.160,1.928,4.131,1.728,-0.499,-0.345,1.571,0.320,0.403,-3.506,-4.720,-3.612,-5.697
0:18:04.913,,4.543,-0.768,4.474,0.328,3.787,3.085,2.730,-0.575,-0.335,2.348,-1.534,3.129,-4.220,-6.969,-4.027,-6.102
0:18:04.913,,3.115,-1.317,1.784,0.667,1.993,1.877,2.884,-3.742,-0.613,2.673,2.440,4.539,-4.266,-4.302,-2.603,-5.230
0:18:04.914,,2.144,0.566,1.816,1.615,2.926,0.595,2.961,-2.484,-0.829,-0.315,1.631,1.870,-3.295,-3.666,-3.059,-2.370
0:18:04.914,,1.018,1.094,2.037,1.271,1.166,2.102,0.073,-1.200,-0.271,-0.083,2.006,-0.481,-1.762,-3.056,-2.651,-1.204
0:18:04.915,,0.037,0.338,-1.396,1.576,0.900,2.772,0.587,-0.767,1.088,1.732,0.860,1.060,-1.166,-2.974,-2.336,-2.443
0:18:04.915,,-0.586,-1.984,-1.306,1.749,2.121,3.505,0.355,-1.763,0.829,0.200,0.155,0.231,-1.446,-0.810,-0.486,-0.796
0:18:04.916,,1.120,-2.491,1.048,0.788,0.125,2.434,0.521,-2.709,-0.839,1.536,1.343,1.310,-0.481,0.280,-3.160,-0.699
0:18:04.916,,0.195,-1.660,1.005,0.399,1.562,1.907,1.092,-4.357,-0.499,2.437,1.528,3.004,-0.118,-1.703,-3.819,-1.065
0:18:04.917,,0.301,-2.663,-1.185,-0.362,1.922,1.795,0.168,-3.337,-1.251,2.815,1.101,2.178,1.228,-2.763,0.479,-0.490
0:18:04.917,,0.722,0.242,-1.012,-0.352,1.883,0.836,0.070,-4.912,-0.433,3.992,2.682,2.894,0.148,-2.612,-2.045,-2.218
0:18:04.917,,-1.184,0.672,-0.397,-0.001,-0.146,1.534,1.390,-2.682,-0.656,-0.066,1.333,3.115,0.810,-2.190,-0.654,-0.974
0:18:04.918,,0.788,-1.096,0.441,1.954,1.569,2.032,1.988,-1.399,-3.351,1.012,0.724,3.137,-0.697,-4.149,-0.947,-2.063
0:18:04.918,,0.191,1.032,2.354,1.016,0.955,1.350,1.856,-2.372,0.263,-0.839,1.866,-1.152,-1.579,-2.026,0.104,-2.988
0:18:04.919,,0.532,1.456,1.828,1.132,0.101,1.093,0.334,-1.804,-0.023,2.315,0.129,1.068,-1.641,-2.246,-1.058,-3.199
0:18:04.919,,0.226,1.110,1.004,1.206,0.927,1.033,-0.884,-1.573,0.798,1.864,2.342,3.433,-3.858,-1.647,-2.271,-3.609
0:18:04.920,,1.345,2.474,1.312,1.345,0.869,2.701,-0.641,-1.704,-0.124,1.960,2.460,1.876,-4.085,-3.613,-3.773,-2.436
0:18:04.920,,0.864,2.549,2.631,1.023,2.032,3.072,-0.595,-1.083,-1.556,2.333,2.649,0.987,-2.056,-3.683,-3.171,-5.901
0:18:04.921,,0.205,2.513,3.261,1.251,2.468,2.933,-2.208,-3.557,-0.726,5.394,1.153,-0.578,-1.820,-4.039,-2.628,-3.693
0:18:04.921,,1.870,0.160,0.016,3.113,3.777,3.420,-1.129,-3.515,0.829,3.319,1.359,0.796,-3.492,-4.976,-3.123,-2.501
0:18:04.922,,0.956,4.080,1.263,1.815,4.101,2.153,2.591,-3.242,-1.148,-0.679,-0.066,3.063,-4.861,-3.038,-3.514,-3.412
0:18:04.922,,-0.082,1.792,3.630,2.061,2.093,2.408,0.882,-1.385,-0.320,1.864,-0.230,0.186,-4.153,-3.374,-2.903,-2.556
0:18:04.923,,3.700,0.107,1.779,1.894,0.123,2.384,1.358,-5.036,1.053,2.435,0.993,1.735,-4.308,-2.356,-3.557,-2.189
0:18:04.923,,3.117,0.079,1.814,0.965,0.541,3.573,1.238,-2.199,0.030,1.115,1.258,0.666,-1.470,-2.225,-5.083,-3.537
0:18:04.924,,0.638,1.368,2.953,1.337,-0.102,3.778,1.333,-2.229,-1.547,0.871,0.656,0.276,-0.330,-3.176,-2.336,-3.479
0:18:04.924,,0.388,2.492,1.287,0.244,0.620,3.917,0.143,-3.407,-2.645,1.345,-0.122,2.478,0.717,-1.886,-3.692,-1.999
0:18:04.925,,2.100,2.981,0.359,-0.918,0.924,3.878,-0.238,-4.536,-0.493,2.484,-1.361,0.380,-1.637,-0.362,-1.674,-1.977
0:18:04.925,,2.899,1.948,2.483,0.621,-2.184,2.252,0.194,-4.796,-2.099,1.613,-0.680,0.240,-1.985,0.091,-0.225,-0.388
0:18:04.926,,3.532,0.196,4.021,2.781,0.510,1.382,0.394,-5.316,-2.570,-1.091,-0.443,-0.113,-1.009,-1.217,-0.137,-1.003
0:18:04.926,,4.173,0.077,3.192,0.248,0.532,1.915,-0.645,-4.982,-2.517,-0.179,0.601,1.830,-1.650,-0.765,-0.792,-1.070
0:18:04.927,,3.980,0.477,2.468,-2.186,1.912,4.180,0.976,-3.616,-0.436,-0.302,-2.872,-0.074,0.256,-2.032,-1.734,-0.957
0:18:04.927,,3.873,-0.862,-0.391,-2.454,-0.512,3.396,0.239,-4.335,0.385,2.507,0.098,-0.787,1.100,1.081,0.008,-3.424
0:18:04.928,,0.645,0.429,1.889,-0.338,2.029,2.158,-0.907,-3.154,-2.123,1.932,-1.285,-0.694,0.852,-1.003,0.393,-0.920
0:18:04.928,,1.552,1.886,1.530,-2.580,0.095,1.189,1.244,-2.959,-1.801,-0.139,-0.698,-0.415,0.136,-0.218,1.317,-0.015
0:18:04.929,,3.980,-0.449,0.398,-3.423,0.856,-0.810,0.404,-2.916,-0.238,0.809,-0.107,0.307,-0.700,0.385,1.729,-0.263
0:18:04.929,,1.849,-0.609,-2.572,0.362,0.151,1.351,1.681,-2.439,-1.147,1.780,-0.060,1.385,-1.380,-0.126,0.456,-0.624
0:18:04.930,,4.217,-0.361,-2.224,1.390,-1.585,0.848,0.551,-4.660,-2.532,0.991,0.896,-0.256,-0.929,1.351,1.729,0.500
0:18:04.930,,2.638,-0.849,0.440,-0.866,-0.513,1.039,1.266,-3.146,-1.127,1.318,-0.158,-1.870,-0.219,1.311,0.818,0.060
0:18:04.931,,3.426,-1.425,-0.115,-1.589,1.166,3.364,-0.744,-4.943,-1.933,1.907,1.057,0.866,-0.912,1.781,-1.508,-0.420
0:18:04.931,,4.111,0.375,0.220,-0.402,1.871,0.975,0.292,-3.827,-3.138,1.708,0.537,0.896,-1.121,0.119,-0.243,-2.368
0:18:04.932,,2.442,0.412,1.419,-0.354,1.509,3.118,0.738,-3.615,-1.146,1.599,1.128,-0.914,-0.418,-1.490,-0.740,-3.612
0:18:04.932,,0.817,-1.741,1.534,-0.631,1.619,1.917,-0.963,-3.400,-0.258,0.647,2.414,2.415,-0.340,-0.891,-0.112,-3.003
0:18:04.933,,-0.471,-0.258,0.968,0.973,0.370,1.195,-1.625,-5.299,-0.500,2.422,3.440,3.397,-1.177,-2.147,0.498,-1.818
0:18:04.933,,-1.416,1.330,2.003,2.548,-0.020,1.350,-0.825,-3.344,-1.193,3.231,1.789,0.759,-1.453,-0.935,-1.904,-1.797
0:18:04.934,,0.061,-0.320,0.768,-0.158,0.099,2.338,0.850,-1.272,0.119,3.396,1.187,-1.780,-1.424,-0.105,-2.263,-1.574
0:18:04.934,,-0.945,2.404,1.574,-0.089,1.275,2.264,1.105,-1.788,0.787,1.707,0.547,-1.061,-2.980,-2.003,-0.922,-1.808
0:18:04.935,,1.298,1.080,1.888,0.546,1.461,2.502,0.302,-1.913,-0.719,1.769,1.795,-0.760,-0.685,-2.949,-2.791,-2.702
0:18:04.935,,0.971,1.890,2.392,0.984,0.492,2.032,-1.426,-2.204,-0.902,0.751,1.289,-1.473,-0.001,-1.615,-2.931,-0.284
0:18:04.936,,2.459,-1.563,-1.344,-0.861,-1.011,0.745,-1.327,-2.561,1.292,1.908,0.855,-0.204,0.455,1.332,1.756,-1.884
0:18:04.936,,1.452,-0.296,-0.641,0.237,-1.135,1.312,-2.015,-5.803,-0.925,0.868,1.712,1.186,-0.830,2.549,3.396,-1.154
0:18:04.937,,4.272,-0.774,-3.634,-0.859,-2.570,-0.282,-1.376,-2.704,-0.862,3.415,-0.016,0.976,-0.031,2.632,1.026,0.902
0:18:04.937,,3.562,-1.675,-2.661,-2.466,-3.258,2.562,-0.866,-0.684,-0.256,3.448,1.165,-0.286,0.618,0.333,-0.556,0.986
0:18:04.938,,0.588,-1.497,-1.470,-1.702,1.022,1.477,-1.464,-0.811,-0.120,0.324,1.797,0.618,1.650,1.206,-0.374,-1.215
0:18:04.938,,-0.295,1.598,-2.088,0.592,0.761,2.287,-1.466,-2.443,0.672,0.513,-1.457,0.284,1.105,-0.592,0.870,-0.344
0:18:04.938,,-2.213,-0.570,-2.276,1.835,0.387,1.118,-2.988,-1.426,0.281,1.051,-2.701,1.502,1.559,1.027,0.578,2.783
0:18:04.939,,-1.539,-0.873,-0.876,0.410,-1.342,0.506,-1.984,-3.124,-0.561,1.657,0.058,2.823,2.146,2.261,0.514,-0.081
0:18:04.939,,-1.243,-2.698,0.675,-0.942,-2.299,-0.539,-1.270,-3.604,0.046,2.215,1.949,2.240,1.601,1.112,0.530,2.207
0:18:04.940,,-0.752,-1.512,-1.587,-1.945,-2.446,0.790,-0.061,-3.488,1.228,0.238,2.200,1.180,1.649,1.028,1.859,1.549
0:18:04.940,,-0.334,-2.520,-1.967,-0.778,-0.614,2.493,-0.583,-4.521,0.770,2.115,2.147,0.180,0.618,0.094,1.253,1.696
0:18:04.941,,2.449,-2.442,-2.012,0.352,-0.275,1.988,0.702,-4.506,-0.191,1.492,1.760,-0.925,-0.705,0.576,0.000,1.654
0:18:04.941,,1.773,2.189,0.782,-0.424,0.275,0.259,0.757,-2.352,2.288,1.880,1.046,-2.036,-2.190,-1.204,-0.652,-2.443
0:18:04.942,,1.794,0.311,-0.407,-0.293,1.363,2.180,-0.249,-2.221,0.446,0.551,0.235,0.132,-1.037,-1.896,0.204,-0.993
0:18:04.942,,2.219,0.813,0.078,3.445,0.659,2.153,-1.579,-0.484,-1.299,0.424,2.283,0.158,-2.027,-3.760,-1.582,-1.545
0:18:04.943,,1.307,0.234,-1.144,2.358,0.574,1.749,-1.441,-1.242,-1.664,1.223,2.191,-0.220,-1.979,-2.682,0.678,0.039
0:18:04.943,,0.973,0.830,0.194,-0.293,0.469,2.225,-1.648,-0.969,0.902,1.784,0.610,1.198,-0.576,-3.015,-0.430,-2.203
0:18:04.944,,2.205,0.119,-0.125,0.106,-0.111,1.638,-1.321,-0.826,0.838,-0.554,2.885,-0.490,-0.224,-2.756,0.315,-1.799
0:18:04.944,,1.585,3.093,-1.241,-2.583,1.210,1.394,-2.696,-1.867,0.216,0.717,2.139,-1.981,1.515,-2.002,0.374,0.006
0:18:04.945,,2.498,0.792,-0.337,-1.388,0.741,0.833,-1.201,-3.663,-1.689,1.451,2.520,-0.868,1.618,-0.295,0.382,-1.393
0:18:04.945,,4.644,-1.597,1.329,-0.954,1.056,1.532,-0.997,-3.588,0.179,-1.500,2.023,0.006,-0.787,-1.536,-1.907,2.206
0:18:04.946,,1.580,-0.570,1.399,1.763,0.240,1.570,-0.704,-3.770,-2.565,1.726,0.582,-0.074,-1.162,-0.799,-1.122,1.880
0:18:04.946,,-0.729,0.615,-1.069,-0.971,0.180,1.442,1.064,-1.782,-1.782,1.091,2.438,-1.249,-1.197,-0.828,1.973,0.740
0:18:04.947,,3.252,-0.097,-1.014,-0.437,-0.866,1.939,-0.554,-4.430,-0.607,3.972,-0.031,-1.606,0.231,-1.128,1.120,0.259
0:18:04.947,,5.361,-0.603,0.701,0.534,0.201,1.378,-2.005,-2.347,-1.625,2.117,-0.362,-0.147,-1.956,-0.463,-0.464,-0.399
0:18:04.948,,1.289,-0.200,-0.857,0.716,-0.607,-0.013,-2.200,-0.468,-2.508,2.398,0.075,-1.318,1.334,0.056,0.124,2.133
0:18:04.948,,-2.027,-1.214,-3.623,-1.643,-0.252,0.519,0.236,-3.159,-0.044,2.954,2.814,-1.452,2.005,1.047,0.946,3.002
0:18:04.949,,-4.176,-2.534,-3.610,-3.080,-1.028,2.008,0.951,-1.658,-0.901,3.166,0.764,-2.352,3.032,4.837,2.742,1.765
0:18:04.949,,-2.996,0.064,-6.124,-2.767,0.089,0.504,-0.983,-1.407,-0.063,2.285,0.837,0.991,1.427,2.964,1.927,3.358
0:18:04.950,,-5.679,-0.075,-5.075,0.235,0.545,1.306,-2.096,-1.236,-1.214,1.754,-1.088,-0.349,4.238,3.270,2.583,2.874
0:18:04.950,,-3.528,0.856,-4.422,-1.507,-1.355,-0.056,-0.607,1.375,0.487,2.020,-0.464,-0.127,1.641,1.846,2.079,1.801
0:18:04.951,,-3.381,-1.490,-4.809,-0.998,-0.721,0.887,0.243,-2.101,-0.182,2.008,1.431,-0.352,3.075,2.834,3.170,0.374
0:18:04.951,,-2.154,-0.720,-4.314,0.703,-2.390,2.435,1.040,-1.551,-2.196,1.014,2.105,0.261,2.014,1.029,3.689,-1.028
0:18:04.952,,-3.040,-2.161,-4.542,3.157,-2.158,0.904,1.369,-2.230,0.225,2.487,2.228,1.233,1.296,0.084,2.195,-0.993
0:18:04.952,,-1.394,-3.048,-4.880,-0.428,-0.453,0.435,-0.101,-3.063,-1.101,1.802,1.540,0.918,0.988,4.767,1.996,2.047
0:18:04.953,,-1.722,-1.793,-4.449,-0.288,-0.516,-0.959,-0.471,-4.798,-1.707,2.433,0.104,4.296,2.561,3.259,2.593,1.530
0:18:04.953,,-1.466,-4.014,-5.117,-0.784,-2.255,-0.246,-1.001,-3.531,-0.410,3.718,1.924,4.069,2.388,0.479,3.157,2.976
0:18:04.954,,-4.320,-1.822,-2.585,-1.090,-3.051,1.459,2.286,-2.692,0.477,2.155,2.801,4.299,1.751,-0.290,1.170,-0.667
0:18:04.954,,-5.106,-3.984,-3.655,-1.072,0.827,-0.988,1.705,-2.542,2.118,3.468,1.960,5.274,1.688,0.500,-0.228,0.089
0:18:04.955,,-2.121,-2.504,-1.557,0.898,0.060,0.375,-0.156,-3.177,2.386,2.560,1.339,4.877,-0.472,-2.097,0.055,-0.440
0:18:04.955,,0.115,-2.994,-0.109,-0.824,-0.691,0.596,-1.017,-3.624,2.041,2.684,1.646,5.279,-1.729,-0.063,0.593,-1.999
0:18:04.956,,2.015,-0.464,2.052,1.196,1.217,1.864,-0.160,-1.227,0.470,1.830,1.579,2.306,-4.967,-3.149,-3.089,-1.450
0:18:04.956,,2.145,2.010,1.070,3.447,1.047,2.038,1.159,-4.127,-1.196,1.909,1.904,3.346,-4.375,-5.068,-4.051,-1.333
0:18:04.957,,2.174,2.421,1.369,1.085,0.601,2.752,-1.332,-2.405,-0.369,2.894,1.388,2.481,-2.504,-3.512,-4.028,-3.007
0:18:04.957,,2.810,2.131,2.193,-0.141,0.529,2.195,1.689,-3.125,-0.219,1.614,2.906,2.166,-2.416,-2.559,-4.268,-5.512
0:18:04.958,,3.795,1.751,3.408,1.219,-0.849,1.324,1.607,-2.421,-0.359,0.116,-0.646,1.613,-2.699,0.942,-4.122,-4.718
0:18:04.958,,4.835,3.690,3.025,2.436,1.443,1.366,0.486,-2.371,-1.155,-1.282,-1.162,0.726,-3.791,0.155,-3.980,-4.376
0:18:04.958,,4.947,5.150,2.155,4.240,2.117,1.277,3.176,-1.722,-1.412,-0.339,-2.410,0.750,-5.805,-3.711,-2.550,-5.714
0:18:04.959,,6.799,3.640,3.091,3.927,2.426,4.025,1.522,-2.834,-2.165,0.615,-0.849,-0.138,-5.202,-4.000,-4.265,-6.647
0:18:04.959,,5.667,3.637,2.959,2.984,2.591,3.251,0.230,-2.377,-3.004,-0.312,0.147,0.795,-5.348,-2.775,-5.121,-3.437
0:18:04.960,,2.153,0.930,4.807,2.209,0.177,2.374,1.628,-2.016,-1.935,0.012,2.602,2.090,-5.183,-2.997,-3.907,-2.836
0:18:04.960,,0.266,3.655,3.374,2.978,0.250,3.457,0.029,-3.574,-0.301,0.741,-0.015,2.122,-2.017,-2.224,-5.287,-3.408
0:18:04.961,,1.143,3.077,3.008,4.168,0.297,2.011,-1.048,-2.725,-0.014,-0.064,1.568,-0.658,-1.578,-2.992,-3.547,-2.587
0:18:04.961,,3.887,0.599,1.579,2.146,0.699,1.276,-0.607,-1.962,-0.970,-0.115,0.319,1.412,-0.322,-2.107,-2.737,-3.088
0:18:04.962,,1.263,2.646,2.064,2.384,-0.663,1.648,-1.471,-1.633,-1.870,-0.284,-0.189,-0.253,0.067,-1.105,-1.313,-1.338
0:18:04.962,,1.619,1.591,3.676,1.799,-0.059,3.386,0.318,-3.170,-2.299,-0.216,0.474,-2.123,0.644,-2.389,-2.231,-1.084
0:18:04.963,,-0.180,0.869,3.183,3.489,2.588,4.489,1.869,-3.250,-1.827,0.729,1.391,0.098,-1.457,-4.333,-4.436,-3.218
0:18:04.963,,1.767,3.243,4.022,3.397,3.109,3.679,1.375,-2.547,-1.770,0.529,-0.036,-1.879,-4.112,-2.817,-4.322,-3.545
0:18:04.964,,2.943,2.814,3.196,2.156,2.550,5.304,3.643,-1.830,-1.410,-1.485,-0.320,1.283,-4.691,-3.739,-4.210,-6.314
0:18:04.964,,4.425,1.660,3.950,0.082,0.768,5.259,2.093,-3.701,0.908,0.593,-1.344,0.640,-3.392,-3.213,-4.406,-4.353
0:18:04.965,,3.157,2.869,3.480,1.789,1.090,3.762,0.840,-4.767,-1.190,1.061,3.053,0.644,-3.491,-5.427,-3.319,-3.578
0:18:04.965,,3.468,0.562,2.729,2.647,2.111,4.674,2.120,-0.358,-0.995,-1.074,2.551,0.659,-3.633,-5.608,-3.157,-6.705
0:18:04.966,,4.045,2.211,2.395,1.147,1.977,3.935,1.351,-1.765,-0.924,1.479,1.265,0.386,-2.293,-6.985,-2.379,-5.853
0:18:04.966,,2.697,3.191,1.512,-1.181,2.934,2.003,1.312,-2.015,0.501,3.915,2.207,-0.080,-4.853,-4.755,-3.653,-3.623
0:18:04.967,,1.946,2.004,-0.017,-0.538,0.801,2.419,0.473,-1.832,0.040,2.654,2.033,2.759,-3.945,-2.919,-1.666,-4.251
0:18:04.967,,-0.372,1.501,0.425,0.153,1.855,2.793,1.765,-3.047,0.035,2.215,0.419,0.205,-2.481,-3.177,0.291,-2.456
0:18:04.968,,1.983,1.537,2.745,-1.436,2.751,2.304,0.820,-1.551,-0.816,2.012,0.998,-0.766,-4.622,-3.250,0.014,-2.594
0:18:04.968,,2.253,2.413,1.036,0.830,-1.352,1.230,-1.304,-1.881,-0.508,2.897,0.400,0.777,-2.443,-0.881,-2.006,-1.505
0:18:04.969,,3.867,1.448,0.198,0.653,-1.005,0.789,-1.447,-4.529,-2.163,2.020,3.949,0.144,-0.370,-1.259,-0.968,-1.344
0:18:04.969,,2.060,1.226,-0.730,0.609,1.063,3.093,-0.102,-3.055,-3.468,-1.393,1.105,-1.385,-0.027,0.155,1.675,-0.924
0:18:04.970,,1.528,2.082,0.933,1.287,-0.014,4.366,0.862,-1.081,-3.137,-0.555,1.455,-2.690,-2.511,-0.993,0.198,-1.848
0:18:04.970,,-0.955,2.044,0.981,0.719,2.353,5.369,-0.462,-0.553,1.899,0.043,-0.612,-3.130,-2.227,-2.683,-0.282,-2.381
0:18:04.971,,1.188,3.072,1.176,0.112,3.803,3.610,0.239,-3.200,-0.207,2.262,-1.674,-1.445,-3.426,-1.747,-0.466,-3.152
0:18:04.971,,0.129,3.778,2.665,1.050,2.671,5.484,3.325,-3.737,-2.184,2.093,-1.707,-2.449,-6.170,0.318,-1.379,-3.861
0:18:04.972,,1.284,1.507,4.117,3.477,0.859,4.356,0.920,-1.664,-2.924,1.226,-1.405,0.331,-4.143,-1.876,-1.432,-4.513
0:18:04.972,,3.306,0.715,2.534,3.350,3.372,2.208,1.312,-3.036,-2.363,1.441,-1.299,2.232,-3.474,-3.622,-3.331,-3.427
0:18:04.973,,3.030,-0.379,6.198,3.520,3.167,1.775,1.564,-3.742,-0.161,1.698,-0.135,0.842,-3.258,-5.875,-5.498,-2.752
0:18:04.973,,1.043,-1.080,4.366,0.638,2.131,5.309,2.159,-0.673,-1.281,1.100,-0.147,2.082,-3.665,-4.736,-3.226,-4.053
0:18:04.974,,-0.182,-1.098,1.079,0.574,3.094,4.755,1.954,-0.770,0.780,0.854,-0.823,1.721,-3.459,-3.035,-2.436,-3.060
0:18:04.974,,-1.100,1.824,1.716,0.827,3.048,1.702,4.031,-3.456,-1.446,0.546,-0.320,2.760,-2.839,-2.224,-2.551,-2.519
0:18:04.975,,0.931,1.767,3.124,-0.937,2.278,0.563,0.744,-2.764,-2.610,1.180,-0.781,0.755,-2.271,-0.695,-0.391,-0.960
0:18:04.975,,-0.109,0.727,2.621,1.068,1.991,2.009,-1.109,-1.888,-1.329,0.970,1.227,1.595,-1.346,-2.290,-1.949,-2.103
0:18:04.976,,-1.326,0.608,2.846,-0.777,1.870,4.142,0.454,-2.661,-2.372,0.474,2.983,3.406,-4.072,-2.653,-0.058,-2.825
0:18:04.976,,-0.391,0.365,1.074,1.050,0.246,1.602,0.002,-0.103,-0.191,0.404,1.888,1.145,-0.608,-2.763,-1.179,-2.453
0:18:04.977,,1.363,0.462,1.065,-1.143,1.186,1.543,1.852,-2.484,-0.002,0.083,0.713,2.864,-3.002,-0.835,-2.182,-1.396
0:18:04.977,,1.148,1.014,-0.088,0.679,0.990,2.499,2.817,-4.186,-2.969,-0.240,0.333,2.978,-2.310,-1.370,0.557,-1.768
0:18:04.978,,1.275,2.813,-0.138,1.031,0.306,2.300,2.541,-2.102,-2.712,-0.537,0.188,3.254,-2.739,-2.664,-1.597,-1.223
0:18:04.978,,1.040,-0.469,-0.714,-0.752,1.032,2.990,0.092,-1.794,-1.312,1.081,0.822,2.629,-0.758,-1.149,-0.900,-1.844
0:18:04.979,,0.626,0.723,0.692,1.315,0.151,4.619,-0.531,-1.440,-1.109,0.544,0.929,-0.077,-1.531,-1.116,-2.135,-1.632
0:18:04.979,,1.303,-0.860,-1.594,0.316,0.362,1.413,1.463,-2.300,-0.337,2.749,2.505,0.756,-1.794,0.210,-1.942,-2.238
0:18:04.979,,-0.541,0.165,-2.213,0.364,2.333,1.058,0.048,-3.344,-0.956,3.466,3.609,1.707,-0.206,-0.926,-3.663,-0.994
0:18:04.980,,0.633,0.461,-2.245,1.699,1.624,1.062,2.193,-1.782,-2.640,2.158,0.903,1.530,-0.503,-1.121,-1.340,-2.541
0:18:04.980,,2.572,1.397,-2.845,1.217,0.797,1.457,1.530,-2.187,-0.871,2.751,0.737,1.410,-1.947,-1.709,-2.302,-2.130
0:18:04.981,,1.021,0.310,-2.331,0.157,-1.848,2.402,0.759,-1.887,-1.718,2.307,1.236,0.106,0.458,-0.173,-1.582,0.858
0:18:04.981,,1.483,0.218,-1.203,0.071,0.518,0.080,2.096,-4.710,0.078,1.625,1.495,0.452,-0.280,-1.748,-0.194,0.152
0:18:04.982,,2.158,1.925,-3.260,1.986,0.541,1.367,1.025,-4.498,-0.047,1.854,2.076,-0.651,-0.356,-1.174,-1.010,-1.891
0:18:04.982,,0.392,0.433,-2.579,1.182,0.612,2.185,0.454,-2.454,0.697,0.756,-0.764,0.101,-0.094,-0.621,-0.525,0.333
0:18:04.983,,1.492,0.184,-2.457,2.030,-1.375,0.680,0.636,-0.438,-1.551,0.532,0.218,0.744,-0.539,-0.527,-1.015,1.478
0:18:04.983,,1.855,0.303,-0.850,1.347,-0.439,2.463,0.932,-2.119,-3.172,0.286,0.954,1.074,0.902,-1.409,-2.113,-0.112
0:18:04.984,,2.396,0.521,-1.978,3.828,0.109,2.676,0.953,-0.910,-2.695,0.079,0.823,-0.591,1.230,-1.034,-3.989,-1.421
0:18:04.984,,2.675,2.012,-0.101,3.285,0.777,1.300,3.052,-2.479,-2.273,-0.119,-0.159,-3.319,-1.494,-0.103,-2.480,-0.640
0:18:04.985,,4.039,2.123,-1.850,-0.541,0.223,1.574,0.355,-3.940,-0.267,0.470,2.080,-2.156,-0.928,-0.296,0.738,-1.590
0:18:04.985,,3.236,0.690,-1.450,0.816,0.702,0.096,1.379,-3.536,0.308,3.561,1.679,-0.715,-1.011,-2.116,-2.080,-1.621
0:18:04.986,,4.127,3.632,-1.102,2.197,-0.504,-0.416,-0.162,-2.004,0.444,1.421,0.678,-1.803,0.935,-4.314,-1.178,-2.052
0:18:04.986,,3.368,-0.659,-3.707,2.434,-1.173,1.410,0.028,-1.741,-0.906,0.247,0.477,1.346,1.659,-1.092,-0.491,-1.145
0:18:04.987,,6.263,0.731,-2.034,1.439,-1.135,3.407,-0.049,-2.564,-1.604,0.323,0.964,-2.037,-2.386,-0.796,-1.177,0.681
0:18:04.987,,3.918,1.538,-3.124,2.526,-1.033,1.443,0.969,-2.442,-2.491,-0.925,3.152,-2.437,-2.023,-1.865,0.084,2.750
0:18:04.988,,2.169,1.275,-0.193,1.754,-0.233,0.378,1.038,-2.434,-1.252,-1.090,0.422,-0.361,0.721,-2.115,-0.270,0.264
0:18:04.988,,1.857,1.056,1.544,-0.423,-0.803,0.353,-0.961,-2.687,-2.469,-0.709,-0.529,-0.291,1.912,1.285,-1.179,2.083
0:18:04.989,,1.433,0.353,-1.160,0.018,-1.859,-1.002,-1.772,-5.239,-3.252,1.624,0.633,0.469,3.288,2.014,-0.115,4.503
0:18:04.989,,2.920,2.096,-3.273,-0.336,-3.690,-3.143,-2.828,-3.945,0.173,2.159,-1.951,-2.163,3.086,3.043,3.507,4.363
0:18:04.990,,2.342,0.584,-3.393,-1.278,-4.006,-0.649,-3.390,-4.538,-0.510,2.376,-0.345,-0.434,4.382,1.624,2.618,4.639
0:18:04.990,,1.092,-0.487,-3.045,-0.416,-2.307,-2.031,-1.770,-4.876,-1.071,3.354,0.826,-1.347,2.903,3.520,0.529,5.198
0:18:04.991,,2.432,-1.780,-1.751,-0.332,-2.181,-1.746,0.650,-4.411,-0.521,1.737,0.548,-0.346,0.780,4.269,-0.753,3.407
0:18:04.991,,2.015,0.118,-2.085,-1.168,-2.843,-0.679,-0.688,-4.144,0.284,0.917,0.894,-2.059,0.883,3.160,2.186,3.211
0:18:04.992,,0.764,2.274,-2.397,2.535,-2.060,-0.408,-1.137,-6.563,-2.052,0.582,0.442,-1.329,1.304,3.138,2.324,2.617
0:18:04.992,,1.621,1.320,-2.172,0.044,-3.581,-1.846,-3.539,-6.245,-0.771,0.703,1.429,2.568,3.377,3.931,3.964,-0.801
0:18:04.993,,3.654,2.395,-1.861,-1.821,-4.737,-2.538,-3.648,-6.068,-2.528,-0.145,2.555,0.833,2.064,3.241,4.757,3.897
0:18:04.993,,3.164,1.626,-1.215,-3.485,-3.819,-3.295,-3.088,-7.960,-0.494,3.069,2.005,1.190,3.561,3.116,1.408,4.167
0:18:04.994,,1.690,0.644,-2.511,-3.817,-6.593,-3.014,-3.654,-6.132,-1.697,2.360,1.004,1.189,6.076,5.419,3.052,5.963
0:18:04.994,,1.099,1.380,-2.787,-3.059,-4.691,-3.577,-2.911,-6.196,0.032,0.492,0.505,0.118,5.862,6.268,3.141,4.291
0:18:04.995,,0.003,1.867,-3.603,-0.046,-4.657,-3.074,-3.287,-6.293,1.044,3.522,0.128,0.678,2.350,2.588,3.887,4.755
0:18:04.995,,1.977,0.985,-3.417,1.316,-2.872,-0.429,-1.866,-2.613,-1.032,-0.898,1.739,0.123,1.342,0.137,2.738,2.871
0:18:04.996,,0.258,0.559,-1.542,-0.191,-3.253,-0.213,-1.238,-3.052,0.554,1.632,1.762,0.791,0.952,-1.576,3.525,1.054
0:18:04.996,,1.533,-0.020,-2.127,0.767,0.122,2.065,-0.120,-2.899,1.613,1.546,2.256,1.326,-0.862,-3.087,-1.931,-0.300
0:18:04.997,,1.666,1.060,-1.004,1.247,1.257,1.360,2.604,-2.468,1.342,0.733,0.462,-0.338,-2.364,-2.964,-1.526,-1.135
0:18:04.997,,3.120,2.098,1.082,1.726,1.902,1.340,1.087,-3.636,1.410,1.066,-0.516,2.301,-4.047,-3.553,-2.400,-3.078
0:18:04.998,,2.654,-0.092,3.866,0.388,3.389,1.998,0.324,-3.006,0.148,2.445,0.679,3.544,-5.894,-3.359,-1.877,-5.288
0:18:04.998,,3.747,-0.018,3.285,2.629,4.022,5.609,3.699,-3.078,-0.814,1.331,2.125,-0.907,-5.162,-5.413,-5.489,-5.507
0:18:04.999,,6.953,1.482,2.552,2.774,2.846,5.559,4.782,-3.758,-0.409,1.089,-1.425,-0.044,-4.232,-5.247,-4.593,-8.198
0:18:04.999,,5.945,-0.040,3.500,3.500,3.204,3.900,2.601,-0.874,1.083,0.095,-0.320,0.779,-4.391,-5.786,-5.338,-7.845
0:18:05.000,,5.524,-0.074,4.326,1.833,3.485,3.696,2.870,-0.481,-1.703,1.068,0.589,3.157,-7.876,-5.967,-4.572,-5.801
0:18:05.000,,2.829,-1.349,4.290,3.457,5.030,5.621,3.922,0.010,-1.117,0.554,-0.696,1.898,-4.440,-7.197,-5.817,-6.919
0:18:05.000,,0.841,-1.911,5.270,0.846,4.496,5.427,5.013,1.103,-1.364,0.395,-1.193,2.314,-3.885,-7.216,-4.600,-5.648
0:18:05.001,,3.108,1.536,0.996,4.547,3.101,2.813,4.934,-0.070,-1.149,1.788,-0.008,0.752,-2.456,-5.750,-6.470,-7.706
0:18:05.001,,3.988,0.270,1.336,2.457,3.731,2.733,4.347,-0.580,-2.399,3.381,0.743,-1.449,-3.511,-4.549,-4.345,-6.064
0:18:05.002,,3.521,-0.356,3.642,0.676,2.172,3.535,3.617,0.196,-2.488,1.774,-1.047,0.058,-3.372,-2.323,-3.920,-5.594
0:18:05.002,,2.804,-0.289,2.400,2.158,2.805,3.724,1.881,-0.761,-2.607,0.698,-1.183,-0.368,0.472,-1.918,-5.063,-4.766
0:18:05.003,,2.809,-0.448,1.067,1.125,2.650,3.677,1.545,-0.102,-2.198,0.494,1.243,1.221,-1.749,-1.402,-5.836,-4.013
0:18:05.003,,1.658,-1.377,-0.503,-0.195,3.281,4.300,4.495,-0.783,-0.925,-0.210,1.300,1.581,-2.734,-3.651,-2.115,-4.186
0:18:05.004,,3.853,-1.686,-0.576,-0.130,3.113,3.150,1.097,0.943,-1.794,1.108,0.329,0.956,-1.730,-2.440,-3.654,-2.441
0:18:05.004,,4.641,0.424,0.508,1.645,0.414,1.018,1.831,-1.353,-0.948,0.795,-0.829,1.989,-3.097,0.423,-5.013,-2.530
0:18:05.005,,1.975,-0.412,1.206,1.406,-0.502,3.528,1.386,-1.894,-0.440,0.146,-1.351,1.638,-2.883,0.386,-2.447,-1.832
0:18:05.005,,3.515,0.311,1.764,-2.131,0.202,1.805,0.969,-3.054,-1.170,-1.554,0.127,-0.805,-1.498,2.210,-0.203,-0.591
0:18:05.006,,2.378,0.470,1.126,-0.818,1.215,1.471,0.378,-3.171,-2.104,0.438,1.244,0.298,1.380,0.545,-1.967,-2.763
0:18:05.006,,2.190,0.209,1.337,0.812,-0.254,0.648,1.310,-4.395,-1.287,1.756,1.480,-0.069,0.705,0.216,-1.701,-3.002
0:18:05.007,,1.677,-1.050,-0.070,1.661,0.350,1.001,1.484,-3.252,-0.567,0.813,-0.014,0.478,0.841,-1.675,-1.197,-0.359
0:18:05.007,,2.064,-0.005,0.124,-0.236,-0.228,2.348,0.667,-2.835,-1.181,-0.103,0.820,0.744,-0.316,-2.069,1.291,-1.080
0:18:05.008,,2.447,1.113,1.439,1.063,1.623,1.848,1.291,-4.299,-2.433,-1.400,-0.867,-1.358,1.273,-1.619,0.601,-0.758
0:18:05.008,,2.275,2.645,1.303,-1.647,0.232,2.606,0.347,-3.986,-0.872,-0.075,1.378,0.491,0.628,-0.175,-2.168,-2.932
0:18:05.009,,1.079,2.417,0.426,-0.565,0.774,1.255,-0.828,-0.898,-2.069,-1.220,-0.482,-0.001,0.904,0.898,-0.683,-1.058
0:18:05.009,,0.433,-0.078,1.854,0.095,-0.567,1.294,-0.194,-1.668,-1.162,0.192,-2.031,-0.159,0.737,-1.154,1.852,0.502
0:18:05.010,,-0.238,0.594,1.780,0.156,-2.210,1.684,0.027,-1.893,-1.139,0.811,-0.223,-0.791,0.470,-1.638,1.760,0.728
0:18:05.010,,-0.210,0.709,1.011,-1.461,-0.503,0.820,-0.117,-2.580,-2.448,-0.120,-0.407,0.819,-1.154,1.057,2.862,1.806
0:18:05.011,,1.379,0.422,3.566,-1.764,0.303,-0.314,-0.120,-3.506,-0.787,-0.924,-1.509,-0.169,0.099,0.859,2.217,0.323
0:18:05.011,,1.496,2.199,0.569,-2.288,-1.013,0.953,-0.542,-2.664,-2.288,1.243,-0.291,1.594,-0.256,0.162,1.138,0.111
0:18:05.012,,1.152,-0.998,-0.603,1.835,-1.179,2.258,0.679,-3.298,-3.888,-0.208,-0.925,3.838,0.195,0.806,1.107,-0.684
0:18:05.012,,0.559,-1.980,0.450,0.557,0.106,0.892,2.058,-1.735,-1.111,1.382,-0.145,1.006,-1.185,0.183,0.751,-1.857
0:18:05.013,,1.485,0.668,0.841,-0.656,0.875,0.277,0.684,-3.162,0.118,-0.695,-0.650,1.444,-0.040,-0.803,0.424,-0.768
0:18:05.013,,2.454,0.802,1.243,0.890,0.800,2.061,-0.962,-3.033,-2.789,-0.819,-0.075,-0.057,-0.905,-2.491,2.591,0.290
0:18:05.014,,1.321,0.156,1.548,1.393,-0.400,1.487,0.215,-2.090,-2.687,1.018,0.871,-1.075,-1.275,-1.492,0.403,0.482
0:18:05.014,,1.300,0.769,1.296,0.831,0.543,1.690,1.708,-1.681,-1.805,1.786,0.072,-1.090,-0.966,-1.114,-1.850,-1.462
0:18:05.015,,1.449,0.230,1.163,1.003,1.217,2.637,1.318,-3.297,-0.999,1.480,-1.020,0.862,-1.112,-2.154,-0.878,-1.898
0:18:05.015,,1.499,-0.753,0.324,0.489,2.232,3.420,1.160,-3.530,-1.938,0.726,-0.275,-0.503,-0.015,-1.560,-0.179,-1.115
0:18:05.016,,2.682,1.571,2.623,1.081,2.282,1.775,-1.295,-1.909,-2.145,1.794,0.600,1.796,-3.825,-2.934,-2.149,-2.051
0:18:05.016,,2.335,0.168,-0.120,0.141,2.014,1.225,0.247,-3.430,-0.409,0.447,3.802,2.461,-3.274,-0.395,-1.309,-3.837
0:18:05.017,,2.541,0.287,0.644,-0.263,1.060,1.709,0.292,-2.057,-1.424,0.135,1.082,2.131,-2.356,-0.932,-0.876,-1.902
0:18:05.017,,0.760,0.539,-0.225,-0.324,1.768,2.141,-1.159,-2.888,-2.841,3.348,1.370,1.833,-2.094,-0.232,-2.498,0.484
0:18:05.018,,2.188,0.365,1.647,-0.913,-1.345,0.721,-0.120,-2.587,-1.734,2.767,0.477,0.016,-0.899,1.438,-0.408,-1.598
0:18:05.018,,0.931,-0.130,2.364,1.978,-3.505,1.333,-0.801,-3.111,-0.291,2.202,-0.462,0.494,-0.496,-1.333,2.164,-1.272
0:18:05.019,,-0.292,-1.577,1.631,-1.826,-0.100,2.037,-0.282,-0.647,0.718,-0.012,0.972,3.171,-1.739,-1.165,0.653,-1.493
0:18:05.019,,1.991,1.481,2.266,-1.792,1.213,1.228,-1.474,-2.048,-2.709,-0.163,1.978,3.813,-1.711,-2.144,-0.131,-1.868
0:18:05.020,,4.197,0.063,2.246,-0.871,-0.311,2.380,-2.302,-3.974,0.003,0.209,-0.159,4.565,-1.202,-3.674,-0.230,-1.083
0:18:05.020,,0.927,0.627,1.551,0.590,0.276,0.527,-1.117,-2.075,0.193,0.288,2.197,1.390,-1.569,-2.294,-1.776,0.242
0:18:05.021,,-1.781,4.664,2.223,-0.501,-0.556,0.785,0.193,-4.481,-0.008,1.712,1.798,-1.548,-2.170,-0.482,-0.536,0.788
0:18:05.021,,-0.967,3.879,1.305,-0.128,-0.968,2.441,1.029,-2.335,1.752,0.264,-1.128,-0.276,-1.233,0.090,-3.440,-0.417
0:18:05.021,,-0.529,2.779,1.464,1.440,0.537,3.040,-0.680,-5.912,0.250,2.691,0.405,0.011,-0.730,-0.890,-1.602,-2.279
0:18:05.022,,1.887,3.211,0.256,0.721,0.981,3.439,-1.146,-3.165,-0.828,0.648,-0.966,0.023,-1.911,-1.317,-0.265,-1.447
0:18:05.022,,2.010,2.372,-0.061,-0.250,0.258,2.916,0.107,-2.372,-0.717,0.401,0.955,1.690,-0.412,-1.995,-2.782,-1.997
0:18:05.023,,1.056,1.263,-1.621,-1.086,0.558,2.553,0.909,-4.631,-1.422,1.008,1.610,1.393,0.364,0.327,-0.605,-1.590
0:18:05.023,,1.374,2.401,-1.491,-0.735,0.913,2.565,-0.968,-4.498,-0.138,1.737,-0.329,1.629,-0.019,-0.275,-1.118,-1.016
0:18:05.024,,-1.015,1.482,-1.358,-0.511,0.682,0.910,-0.447,-3.291,-0.535,4.441,1.634,1.660,0.168,-2.913,1.067,-2.049
0:18:05.024,,0.998,3.234,0.779,1.112,-1.967,0.486,0.593,-2.920,-1.983,2.139,0.910,1.087,-1.886,-1.893,-0.310,-0.336
0:18:05.025,,2.369,1.129,-0.575,0.048,-2.166,0.963,-0.466,-3.670,-2.671,0.750,0.579,2.288,1.154,-0.943,-0.398,1.519
0:18:05.025,,-0.035,2.157,-0.586,1.478,0.880,2.981,0.061,-2.901,-3.323,-1.256,0.088,3.569,0.220,-0.856,-1.988,-0.567
0:18:05.026,,2.307,0.067,0.553,0.786,0.261,0.520,0.185,-2.051,-0.842,1.920,0.540,2.044,-2.362,-2.528,-1.323,-0.219
0:18:05.026,,2.822,0.872,0.299,0.443,-0.795,1.670,0.797,-2.515,-3.052,2.212,-1.173,-0.515,1.263,-1.357,-1.017,0.041
0:18:05.027,,2.577,3.400,1.282,1.265,-0.258,2.473,-0.490,-4.351,-2.554,0.563,-1.965,1.493,-0.073,-0.483,-0.922,-2.057
0:18:05.027,,1.539,3.110,0.219,2.099,-2.063,1.553,-1.351,-2.880,-1.624,-1.466,-0.855,0.894,-1.559,1.152,1.064,0.169
0:18:05.028,,1.584,3.313,-0.686,3.164,1.146,1.127,-0.772,-2.289,-2.352,-2.841,0.563,0.892,-0.952,0.410,-1.105,-1.164
0:18:05.028,,2.527,1.493,1.078,1.285,-0.341,1.279,-1.030,-3.352,-2.623,-2.328,1.648,-0.783,1.398,0.110,0.088,-0.340
0:18:05.029,,3.041,2.099,1.195,1.605,-0.007,1.164,-0.332,-2.505,-2.798,-0.912,-0.850,-0.836,-0.049,-1.794,1.720,-0.820
0:18:05.029,,1.616,2.491,1.591,-0.161,-1.675,0.667,0.611,-3.397,-3.082,0.318,-0.548,0.495,1.553,-0.315,-0.687,0.559
0:18:05.030,,2.695,2.165,0.373,-0.440,-0.716,-0.038,2.914,-3.901,-1.238,0.500,0.383,0.660,-1.242,-2.161,-1.524,1.523
0:18:05.030,,2.598,2.938,1.072,0.716,-0.261,1.002,-0.263,-1.584,-1.714,0.579,0.159,0.665,-0.771,-2.080,-1.501,-1.623
0:18:05.031,,2.349,0.762,0.529,0.935,-1.151,-1.292,-1.045,-3.355,-1.227,0.107,0.637,0.595,0.275,-0.894,2.488,0.203
0:18:05.031,,2.032,0.659,1.118,2.958,1.103,0.189,-0.234,-3.848,-3.550,0.405,-0.125,1.561,-1.573,-2.277,0.624,1.028
0:18:05.032,,2.350,0.517,1.129,1.604,1.105,0.454,0.524,-3.539,-2.584,0.713,-0.938,2.886,-0.999,-1.934,0.539,-1.736
0:18:05.032,,2.059,0.223,-0.994,1.684,0.614,1.014,1.240,-2.386,-1.734,0.911,-0.165,1.299,0.859,-2.713,-1.198,-0.603
0:18:05.033,,-0.020,0.680,-1.367,2.081,-0.191,0.483,1.832,-0.904,-0.728,0.587,-0.091,0.934,-1.106,-0.765,-0.341,-1.181
0:18:05.033,,0.057,2.245,-2.178,2.736,0.255,2.690,-0.983,-0.795,-2.209,1.134,-0.460,0.636,-0.908,-0.213,-1.006,-1.054
0:18:05.034,,1.011,2.489,-2.475,3.146,0.744,2.032,-1.269,-1.906,-2.025,1.551,0.880,1.948,-2.709,-0.097,-2.215,-1.120
0:18:05.034,,0.821,0.456,-1.091,1.628,-0.174,1.263,-0.191,-2.837,-1.550,1.015,-1.057,1.917,-0.927,-0.854,0.566,0.916
0:18:05.035,,0.448,-0.040,0.228,0.187,0.351,1.039,0.271,-2.423,-0.430,1.761,-2.100,2.574,1.017,-3.194,-0.158,0.335
0:18:05.035,,0.691,-0.861,0.519,0.626,-1.353,0.200,0.523,-2.725,-1.183,2.985,-1.169,4.315,0.616,-1.558,-2.736,1.065
0:18:05.036,,2.348,0.250,0.942,-0.664,-1.408,0.003,-1.522,-0.773,0.670,0.625,0.081,2.603,0.189,-0.538,-2.230,-0.549
0:18:05.036,,2.576,-1.102,1.665,0.181,-0.044,2.987,-0.142,-2.074,0.888,1.894,-0.512,1.567,-2.488,-2.517,-2.449,-0.521
0:18:05.037,,1.169,0.433,1.701,-0.075,0.070,2.900,1.370,-2.668,-0.863,1.047,-0.218,1.152,-1.636,-0.595,-1.572,-2.290
0:18:05.037,,1.922,1.935,-0.710,1.225,0.056,2.880,1.127,-3.400,-2.039,-1.283,-0.810,1.627,0.269,0.699,-1.062,-2.321
0:18:05.038,,1.306,2.135,1.395,-1.337,0.785,3.596,-0.277,-2.655,-1.846,-1.623,0.224,2.197,0.670,0.312,-2.896,-2.051
0:18:05.038,,0.322,0.569,-0.183,0.508,1.850,2.895,-0.503,-2.358,-1.682,-0.997,1.199,2.958,-1.219,-0.615,-1.178,-1.691
0:18:05.039,,0.455,1.145,-0.113,1.001,2.644,1.845,-0.702,-3.331,-1.065,1.390,2.008,0.833,-2.527,-0.844,-2.512,-0.334
0:18:05.039,,0.873,0.798,0.302,1.828,1.107,1.897,1.537,-3.296,-0.735,1.151,-0.292,-1.345,-1.629,-1.034,-1.819,0.741
0:18:05.040,,-0.374,0.198,1.315,0.673,-0.712,1.930,2.342,-3.369,-0.427,2.774,-1.714,1.504,-0.623,0.127,-2.059,-1.664
0:18:05.040,,-1.083,3.022,2.734,0.874,-0.977,0.720,1.341,-3.650,-2.458,1.900,-1.337,1.606,-0.934,1.026,-1.483,-1.231
0:18:05.041,,-1.101,1.617,2.090,0.008,0.875,1.852,1.410,-2.333,-0.744,1.398,-0.602,-1.225,0.099,0.544,-1.176,-2.656
0:18:05.041,,-2.073,-0.347,2.324,0.496,0.305,3.890,-0.328,-3.210,-0.765,0.859,-1.095,-0.535,-0.231,0.251,-0.874,1.387
0:18:05.042,,-0.408,0.119,2.897,-0.330,1.222,1.846,-0.090,-5.741,0.753,-0.007,0.274,-0.148,0.186,-0.636,0.951,-0.818
0:18:05.042,,-0.763,0.817,0.731,1.598,2.011,4.405,-0.298,-2.731,1.871,0.312,-0.012,-1.572,-0.855,-1.032,-1.545,-2.849
0:18:05.042,,-2.424,1.607,1.292,0.482,0.543,0.465,-0.129,-1.854,-0.666,-1.026,1.013,-0.179,0.075,0.782,1.193,-1.243
0:18:05.043,,-0.898,1.086,0.617,2.612,-0.797,2.672,0.495,-2.135,-1.459,-0.870,-0.807,0.722,2.257,0.569,-0.844,-3.091
0:18:05.043,,-1.399,-0.431,1.606,1.986,-1.464,2.422,0.457,-1.406,-0.908,0.624,-0.798,1.660,0.556,0.237,-0.112,-3.136
0:18:05.044,,-0.803,0.465,1.656,2.530,-1.316,0.403,-1.802,-2.965,0.418,0.589,0.025,0.328,-1.424,-0.244,1.353,0.830
0:18:05.044,,-0.804,0.934,-0.175,2.720,0.582,-0.431,-0.373,-2.763,-0.265,2.849,0.827,0.497,-1.677,-1.840,-0.406,0.406
0:18:05.045,,-1.019,1.966,-0.967,0.950,0.974,1.975,1.709,-2.198,-0.203,2.223,0.210,-0.020,-1.283,-0.447,-2.531,-1.410
0:18:05.045,,1.314,0.493,-1.145,1.761,-0.464,1.551,1.176,-3.504,1.064,1.620,0.992,1.709,-2.027,0.666,-1.891,-3.322
0:18:05.046,,1.466,-1.407,-0.049,2.240,-1.451,1.113,1.560,-2.764,-0.117,1.189,0.965,1.924,-0.676,-0.885,-1.246,-1.731
0:18:05.046,,1.533,-0.245,-1.783,3.387,-1.573,1.112,-1.614,-2.311,-1.885,2.785,-0.476,2.270,0.629,-0.504,-0.178,-1.252
0:18:05.047,,2.376,2.008,-1.657,2.831,0.541,1.879,0.024,-4.265,-1.791,1.144,1.344,0.655,-2.510,0.021,-0.040,-2.606
0:18:05.047,,0.934,0.420,-1.281,3.235,1.063,0.533,-0.243,-5.454,-0.324,0.782,2.407,-0.525,-0.981,-0.398,0.767,-0.823
0:18:05.048,,0.893,-0.667,1.154,2.973,0.784,1.307,-3.054,-3.497,-0.928,1.100,0.090,-0.070,-1.292,-1.341,1.019,1.508
0:18:05.048,,1.291,-1.037,-0.385,1.226,-1.479,2.155,-1.698,-2.152,1.418,1.304,0.901,-0.489,-1.286,-0.767,-0.427,1.315
0:18:05.049,,3.074,0.574,-0.647,2.659,-0.127,1.808,-1.520,-3.169,-1.850,1.701,0.470,-0.426,-1.691,0.251,-1.789,0.622
0:18:05.049,,1.467,1.175,1.468,1.746,-1.150,3.152,-0.907,-2.290,-2.353,1.942,1.066,2.718,-2.867,0.068,-2.361,-2.964
0:18:05.050,,3.733,1.593,0.212,1.382,1.013,4.210,-0.598,-2.712,-1.253,0.281,0.416,2.339,-3.654,-0.792,-2.862,-3.193
0:18:05.050,,2.946,2.280,1.407,1.360,-0.109,3.099,0.504,-2.397,-1.031,-0.159,-0.271,0.895,-2.428,-1.642,-1.833,-2.483
0:18:05.051,,2.315,1.412,0.605,2.255,0.762,2.500,-0.396,-3.011,-1.060,0.115,-0.465,-0.370,-0.568,-2.194,-1.496,-0.491
0:18:05.051,,1.778,1.809,0.585,4.016,-0.836,2.690,-1.258,-2.680,-2.850,0.311,1.564,-1.283,-0.366,-0.846,-0.996,-1.680
0:18:05.052,,-0.814,2.251,0.822,3.385,0.102,0.700,-1.040,-4.697,-2.577,2.250,0.216,1.195,-0.295,-0.574,-0.655,-0.308
0:18:05.052,,-0.364,1.542,1.268,2.102,0.312,1.134,-0.439,-4.244,1.047,0.946,0.268,1.358,-0.250,-1.429,-0.553,-2.822
0:18:05.053,,-0.945,0.905,1.201,1.321,-1.303,2.158,0.264,-4.442,1.163,0.214,-0.248,1.275,1.528,-0.559,-0.805,-1.680
0:18:05.053,,0.042,1.802,-0.384,0.278,-1.084,2.482,-1.854,-4.374,-2.028,3.541,1.607,-1.146,0.340,-0.521,0.857,0.494
0:18:05.054,,1.990,1.264,0.525,1.413,1.542,2.970,-1.828,-4.534,-0.600,1.481,0.505,1.226,-1.203,-2.698,-1.321,-0.748
0:18:05.054,,0.728,2.053,-0.011,1.373,0.154,1.427,-2.540,-2.421,0.094,2.008,1.648,3.662,-1.527,-3.416,-1.721,-1.429
0:18:05.055,,1.024,-0.147,0.765,2.539,-0.134,-1.745,-1.989,-3.191,0.548,1.260,-0.661,2.152,0.152,-0.595,0.436,-0.347
0:18:05.055,,0.855,-1.279,0.149,0.257,0.163,2.516,-0.614,-3.202,0.212,2.091,2.383,1.750,-1.460,-0.552,-1.162,-2.091
0:18:05.056,,-0.180,-1.855,-0.224,0.861,0.392,1.003,0.044,-3.178,-1.816,1.558,1.499,3.433,-0.913,0.350,0.363,-1.242
0:18:05.056,,3.026,-0.110,1.245,1.356,-1.921,1.059,-0.404,-5.058,-0.256,2.221,0.940,2.203,0.125,-0.844,-0.769,-2.937
0:18:05.057,,1.706,-0.164,-0.391,-0.837,-0.865,0.929,-0.549,-4.861,-0.060,2.867,2.180,2.288,1.647,-0.415,-0.713,-2.843
0:18:05.057,,2.176,0.553,0.329,1.452,-0.503,0.879,-0.760,-3.386,-0.559,2.031,0.490,2.804,0.427,-0.485,-1.302,-4.016
0:18:05.058,,1.505,-0.587,-1.093,1.581,-0.200,-0.016,-0.748,-2.235,0.625,3.465,0.842,1.250,-0.337,-0.372,-0.355,-3.409
0:18:05.058,,2.299,0.637,0.642,0.181,-0.181,1.900,0.924,-1.541,-1.057,0.522,1.871,0.498,-1.485,-2.941,0.361,-2.552
0:18:05.059,,1.214,0.146,0.328,1.286,-0.838,-0.177,-0.269,-3.914,-2.089,1.905,2.084,2.881,-0.796,-1.629,0.621,-0.858
0:18:05.059,,3.851,0.409,-3.488,3.883,-0.503,-2.119,-0.944,-3.517,-0.477,2.406,-0.177,1.205,-0.912,-0.214,-0.576,1.300
0:18:05.060,,3.026,0.868,-1.910,0.029,-1.035,1.391,-3.362,-4.180,0.341,3.175,-0.801,-0.674,-0.755,0.724,1.444,1.836
0:18:05.060,,1.456,-0.768,0.971,-0.384,-1.352,1.612,-1.844,-3.409,1.405,4.564,0.452,-2.524,0.192,-1.670,1.052,0.243
0:18:05.061,,-0.698,-0.208,0.325,1.768,-0.528,1.320,-1.586,-5.436,-0.917,3.798,1.312,1.189,0.518,-0.794,0.885,-0.873
0:18:05.061,,-0.826,0.606,-0.615,0.777,-0.765,2.068,1.243,-4.810,0.008,2.702,0.259,-0.973,-0.043,0.765,0.631,-0.983
0:18:05.062,,0.655,0.999,0.925,-0.021,-0.176,0.546,-0.570,-3.878,0.373,2.863,0.085,0.249,-0.016,-1.874,-0.351,0.265
0:18:05.062,,-0.250,1.277,0.866,-0.397,0.009,1.703,-0.550,-3.792,-1.254,3.621,-0.810,1.930,-1.341,-0.834,0.788,-0.928
0:18:05.063,,-1.286,0.981,-1.526,1.162,0.919,0.788,-3.084,-1.604,0.817,3.058,-0.521,1.831,-0.070,0.258,-0.646,-1.108
0:18:05.063,,1.612,2.027,-0.943,-0.621,-1.074,-0.535,-0.627,-1.187,1.924,1.023,-0.238,-0.403,-2.255,-0.636,0.396,1.534
0:18:05.063,,0.931,1.608,0.658,1.527,-0.520,0.016,0.947,-1.219,0.763,0.239,0.989,-1.733,-2.680,-1.695,-0.418,0.623
0:18:05.064,,2.472,1.118,1.017,1.835,-2.470,1.418,-0.165,-2.342,-1.063,0.145,0.744,-3.444,-0.836,-1.269,0.594,2.128
0:18:05.064,,2.861,-0.297,-1.598,0.402,-1.721,1.032,-0.704,-3.226,-1.217,1.327,2.378,-0.463,-1.137,0.164,0.504,1.625
0:18:05.065,,2.405,-0.284,-1.806,0.190,-0.108,1.223,2.812,-4.040,-1.393,1.393,1.669,-3.393,-0.251,0.530,0.145,0.824
0:18:05.065,,2.128,-0.208,-0.267,0.430,0.359,1.112,0.628,-2.992,-1.327,1.407,-1.013,-1.744,-0.169,1.739,-1.848,1.887
0:18:05.066,,1.068,-2.035,3.041,-0.473,-0.361,1.024,-1.104,-1.770,-0.010,-0.112,0.103,-2.164,-0.586,0.230,0.377,2.900
0:18:05.066,,1.364,0.407,1.674,-1.827,-0.621,-0.931,-0.504,-2.446,0.253,2.815,-0.445,-2.426,0.857,-0.491,0.399,2.029
0:18:05.067,,2.545,-0.021,-0.051,-0.339,0.881,1.167,-1.330,-2.525,0.343,1.438,1.465,-0.736,-1.330,0.137,-1.329,-0.296
0:18:05.067,,2.848,0.317,0.978,1.082,1.009,1.738,-0.206,-1.759,0.031,-0.264,2.903,-3.852,-0.166,-2.254,-2.355,-0.120
0:18:05.068,,3.035,0.748,2.119,1.149,-1.208,-1.619,-0.252,-1.282,1.360,1.707,1.082,-2.317,0.198,-0.579,-2.674,-1.384
0:18:05.068,,3.942,0.049,3.571,2.377,-0.389,-0.551,0.315,-1.615,-1.306,1.356,1.173,-0.804,-0.812,-1.490,-2.458,-3.289
0:18:05.069,,2.458,0.288,5.116,3.809,1.172,1.503,-1.352,-3.930,-1.882,1.505,1.772,-2.617,-1.140,-2.372,-2.224,-2.175
0:18:05.069,,2.065,3.657,3.694,3.050,1.090,0.600,-1.423,-4.550,-1.871,2.115,0.082,-2.147,0.238,-2.922,-0.789,-2.776
0:18:05.070,,1.070,2.089,3.694,-0.660,0.205,0.372,1.336,-5.076,0.360,0.619,0.972,-0.194,-1.696,0.045,-0.600,-2.570
0:18:05.070,,2.558,-1.477,3.162,-0.026,1.808,1.660,1.660,-2.607,-1.539,1.537,1.375,0.852,-2.908,-1.438,-1.492,-3.201
0:18:05.071,,2.416,-0.490,3.336,1.278,0.791,1.654,0.981,-2.115,-0.356,1.840,0.844,0.246,-2.386,-3.147,-2.153,-2.814
0:18:05.071,,1.354,1.524,4.166,0.178,0.246,2.915,1.058,-2.627,-1.415,2.906,-0.497,0.636,-4.181,-1.450,-1.900,-3.039
0:18:05.072,,2.984,-1.575,2.400,2.640,0.351,-1.346,0.112,-3.220,-2.017,2.343,0.970,2.268,-1.999,-0.804,-0.830,-2.349
0:18:05.072,,2.275,0.983,-0.945,1.655,-0.624,2.003,0.866,-3.341,0.616,1.434,0.346,1.715,-2.047,1.017,-1.846,-4.019
0:18:05.073,,2.500,1.428,0.274,0.372,-0.973,2.369,2.031,-1.584,1.363,0.332,1.039,0.178,-1.718,-0.019,-3.437,-4.165
0:18:05.073,,2.455,1.457,0.253,0.729,1.947,0.787,1.039,-1.595,0.728,0.204,0.955,-0.117,-2.487,-2.344,-2.101,-1.927
0:18:05.074,,1.328,-0.369,1.180,0.520,-0.154,1.781,-1.059,-2.876,0.270,1.519,1.808,0.111,-2.756,-0.426,1.251,-2.110
0:18:05.074,,2.463,-0.645,0.865,0.938,-0.329,2.523,0.492,-1.491,1.126,2.334,-1.675,-1.497,-0.937,-2.044,-0.504,-1.752
0:18:05.075,,2.444,0.059,0.044,1.797,-0.260,3.674,0.412,-1.640,1.183,0.195,-0.780,0.514,-2.444,-1.582,-1.997,-1.719
0:18:05.075,,2.678,-0.149,1.604,2.566,-0.555,3.552,-0.896,-3.691,1.560,0.926,0.762,-2.981,-0.690,-1.584,-1.089,-1.889
0:18:05.076,,3.309,0.832,1.118,-0.279,-0.450,-0.552,-0.861,-2.844,2.875,2.514,2.527,-1.319,-1.441,-1.351,-1.935,-2.165
0:18:05.076,,2.018,1.277,-0.858,-0.025,1.268,2.288,0.611,-2.690,1.338,0.829,1.293,-0.457,-3.372,0.671,-3.176,-0.959
0:18:05.077,,2.922,2.179,-0.514,0.514,-0.035,1.636,-2.265,-1.671,-1.371,2.090,-0.280,1.108,-0.658,0.250,-3.650,-0.248
0:18:05.077,,2.589,2.531,0.077,-1.364,-1.776,2.563,-0.629,-1.695,-2.372,2.359,0.542,-1.812,1.473,-0.797,-1.509,-0.209
0:18:05.078,,1.837,4.123,1.649,0.019,-0.358,0.627,0.568,-1.376,-2.060,1.299,-1.529,-3.592,0.506,-1.008,0.434,-1.051
0:18:05.078,,0.134,2.342,1.231,-0.548,0.397,1.422,0.248,-3.821,-1.731,1.979,1.738,-0.627,0.040,-2.162,2.362,-3.048
0:18:05.079,,-1.919,2.007,2.656,-0.694,0.436,0.397,-0.760,-4.689,0.680,1.902,1.631,-0.730,0.834,0.484,-0.697,-1.452
0:18:05.079,,-1.701,2.359,2.337,-1.089,0.596,0.509,0.356,-2.263,0.344,2.014,1.579,0.834,-0.276,-1.366,-2.362,-1.934
0:18:05.080,,-2.391,0.607,1.303,-1.041,1.980,1.724,1.008,-1.765,-0.038,1.434,1.974,-0.667,-2.070,-0.458,1.508,-3.209
0:18:05.080,,-0.278,-1.377,0.777,1.218,-0.752,1.474,0.363,-1.998,-0.360,3.186,1.442,-2.365,-1.394,-0.013,1.044,-0.844
0:18:05.081,,-0.039,1.311,0.493,-0.296,-0.888,0.230,0.578,-1.730,1.489,2.340,2.175,-2.544,-0.728,-0.145,0.398,-2.771
0:18:05.081,,0.177,2.193,2.098,-0.526,-0.613,1.324,-0.772,-2.450,0.577,3.578,1.704,-0.421,-2.361,-0.657,-0.884,-2.965
0:18:05.082,,0.437,1.864,2.603,-1.558,-1.315,3.205,-0.199,-2.973,1.438,2.085,-0.084,-0.942,-1.754,0.036,-3.739,0.819
0:18:05.082,,0.912,3.037,1.837,-1.220,-0.900,1.736,-1.732,-3.064,-0.520,3.369,0.688,-2.044,-1.353,0.984,-0.819,-0.956
0:18:05.083,,1.060,3.155,2.328,0.072,-0.465,0.667,0.341,-2.912,-3.859,1.493,0.278,-3.072,0.217,0.574,0.969,-0.770
0:18:05.083,,-1.259,1.148,1.365,0.995,-0.840,0.362,1.122,-3.162,0.557,1.451,-1.943,0.337,0.333,0.726,-0.083,-1.182
0:18:05.083,,-1.260,-0.591,-0.589,0.770,-0.985,1.868,-0.984,-1.840,0.128,1.815,-0.711,-1.100,0.141,2.242,-1.761,2.813
0:18:05.084,,-0.781,2.834,1.585,-0.606,-0.419,2.443,-0.830,-2.170,-0.915,0.283,-2.829,-2.902,-0.858,1.889,-0.119,3.524
0:18:05.084,,-3.798,3.638,1.501,0.438,0.315,1.735,-0.034,-1.782,-2.483,-0.237,-3.166,-0.621,-0.232,1.818,1.846,1.159
0:18:05.085,,-2.226,3.892,1.658,0.421,-1.735,0.361,-0.694,-1.696,-1.870,-2.175,0.158,-2.320,2.252,1.236,-0.040,2.804
0:18:05.085,,-0.714,0.816,-0.015,0.851,-1.591,0.901,-1.639,-3.463,-2.503,0.130,0.660,-2.398,2.962,1.769,0.267,3.869
0:18:05.086,,-1.016,0.942,-1.025,1.067,-2.508,-0.478,-2.570,-4.055,-0.623,2.084,0.188,-1.176,2.994,2.252,0.018,3.857
0:18:05.086,,-2.973,2.519,0.353,0.025,-1.303,0.069,-2.197,-3.574,-0.197,2.537,-1.335,-1.818,2.433,2.719,-0.623,3.439
0:18:05.087,,-3.350,-0.764,-0.462,1.457,-0.582,-0.810,-2.032,-0.678,-1.431,0.444,-0.804,-1.556,3.851,2.220,1.100,3.525
0:18:05.087,,-4.052,-0.958,0.450,0.187,0.232,1.827,-1.779,-1.191,-2.261,1.255,-1.267,-2.333,2.070,2.218,2.660,2.883
0:18:05.088,,0.182,-1.194,-0.662,0.958,-1.115,1.893,-1.632,-2.778,-2.659,2.684,-0.606,-1.536,0.212,1.593,1.514,3.196
0:18:05.088,,0.112,0.326,1.280,0.608,-0.242,2.028,-2.462,-3.399,-2.498,-0.322,-0.303,0.330,1.227,1.213,0.926,1.061
0:18:05.089,,-1.679,2.511,-0.013,1.000,1.198,1.500,-3.959,-2.682,-2.062,-0.567,-1.386,0.031,3.891,1.416,-0.590,1.478
0:18:05.089,,-1.406,0.598,-0.003,1.074,-0.761,2.147,-2.892,-3.049,-1.813,-2.347,-0.579,2.992,0.991,1.197,2.386,1.522
0:18:05.090,,1.028,-1.954,0.865,0.060,-0.232,-0.895,-3.220,-3.964,0.138,0.106,-0.186,1.067,1.971,1.714,3.114,0.494
0:18:05.090,,0.071,-1.877,0.165,-0.498,-1.256,1.068,-1.748,-3.568,-1.087,-0.909,-0.265,-1.244,2.383,2.895,2.734,3.103
0:18:05.091,,-1.862,-2.686,-1.249,-0.628,0.265,2.027,-2.328,-4.519,-0.873,0.772,-0.244,1.340,0.956,3.443,2.009,3.557
0:18:05.091,,0.570,0.398,-0.443,0.728,-0.542,0.889,-0.196,-4.040,0.148,-0.365,0.003,0.109,2.377,0.274,-1.669,1.859
0:18:05.092,,1.531,2.618,0.796,1.890,-0.222,1.544,0.178,-2.610,-0.388,2.213,0.252,0.390,-0.093,-2.819,-3.164,-2.165
0:18:05.092,,1.122,3.153,1.611,1.208,-0.270,3.365,1.516,-1.518,0.585,2.453,-0.238,1.225,-2.174,-5.190,-2.154,-4.580
0:18:05.093,,2.822,3.936,2.112,4.697,-0.264,2.075,0.955,-2.479,0.476,4.535,-0.202,0.717,-3.719,-5.028,-3.645,-7.107
0:18:05.093,,3.073,3.399,3.094,3.528,1.002,3.913,-0.135,-2.247,1.206,3.716,-1.283,-0.500,-6.232,-5.233,-2.536,-4.755
0:18:05.094,,2.928,2.495,3.576,2.184,0.707,2.624,0.602,-2.614,0.643,1.532,-1.243,-0.540,-4.907,-1.895,-2.889,-3.322
0:18:05.094,,0.184,2.042,4.583,2.502,0.538,1.572,-0.233,-3.116,1.330,0.182,1.175,2.177,-4.043,-1.145,-4.080,-3.654
0:18:05.095,,3.099,0.381,2.490,1.968,-0.047,4.183,-1.420,-1.791,0.966,-0.377,1.947,0.724,-0.062,-4.700,-3.455,-3.921
0:18:05.095,,2.835,1.383,3.157,4.523,-2.775,2.531,-0.106,-1.135,-1.255,1.411,-0.744,2.542,-1.530,-5.100,-2.324,-3.463
0:18:05.096,,0.531,2.715,2.535,4.355,-2.478,1.091,1.351,-3.335,-0.503,1.978,-0.963,2.601,-2.317,-1.638,-2.240,-3.632
0:18:05.096,,-0.371,2.731,1.210,4.188,0.905,2.764,-0.102,-2.947,-0.574,-0.043,-0.622,3.686,-1.214,-3.866,-1.203,-4.521
0:18:05.097,,2.541,1.259,0.673,3.057,-0.618,1.178,0.295,-1.841,0.970,0.530,-0.146,1.707,-0.892,-3.617,-2.363,-2.833
0:18:05.097,,2.582,4.506,1.208,2.203,-1.757,0.443,-0.563,-3.762,0.213,0.575,-1.566,2.078,-0.018,-3.077,-2.755,-0.345
0:18:05.098,,2.765,1.547,2.404,1.642,0.045,2.200,-0.790,-4.199,0.665,1.785,-0.990,2.852,-2.495,-2.419,-3.578,-1.464
0:18:05.098,,2.336,0.876,3.239,2.063,0.788,1.110,-1.764,-1.734,-0.235,1.363,1.309,1.121,-2.331,-2.694,-1.573,-3.819
0:18:05.099,,-1.134,2.181,0.565,2.090,0.629,1.301,-1.349,-2.321,0.276,2.886,1.137,2.150,-1.746,-2.408,-1.352,-3.033
0:18:05.099,,0.884,2.007,1.431,1.181,-0.893,1.851,-0.322,-1.108,-0.899,4.011,0.859,1.437,-1.550,-3.261,-3.174,-2.519
0:18:05.100,,2.004,0.580,2.143,1.939,-0.120,0.258,-0.079,-4.048,0.961,2.296,1.536,3.268,-1.429,-2.678,-2.655,-3.971
0:18:05.100,,0.416,1.741,1.620,1.493,1.262,1.454,1.192,-4.761,1.187,1.966,1.743,-0.127,-1.994,-3.748,-0.565,-2.800
0:18:05.101,,3.087,3.528,1.822,3.470,0.829,1.058,0.943,-2.990,-1.387,0.772,-0.560,-0.090,-1.979,-4.743,-1.033,-2.819
0:18:05.101,,1.571,1.331,2.238,3.731,-0.065,1.554,0.021,-2.177,0.696,0.645,0.934,0.493,-1.599,-6.232,-0.021,-3.062
0:18:05.102,,-0.141,2.095,1.988,2.649,1.223,2.415,0.676,-3.013,-0.386,2.083,-0.760,0.420,-0.889,-4.981,-1.199,-2.101
0:18:05.102,,1.129,1.831,1.308,0.059,0.702,0.616,-0.198,-3.134,0.715,2.020,1.617,-0.463,0.070,-2.196,-0.741,-3.238
0:18:05.103,,2.497,2.089,-0.920,-1.710,0.386,1.027,-0.538,-3.253,-0.004,2.452,-0.448,-0.115,-0.246,-0.698,-0.665,0.137
0:18:05.103,,2.334,0.680,-2.423,0.045,-0.438,1.254,1.060,-2.026,-1.040,1.295,2.380,-1.083,-2.294,0.104,0.122,0.098
0:18:05.104,,1.868,0.580,-0.108,0.259,0.812,0.922,-1.058,-2.932,0.746,2.090,1.623,0.044,-2.371,-1.104,-0.016,-1.352
0:18:05.104,,2.933,2.514,-1.633,-0.963,-0.413,1.272,-1.548,-1.817,-0.589,1.216,0.385,1.539,-0.538,-1.042,-1.467,0.203
0:18:05.104,,2.114,3.175,-1.519,-0.820,-0.507,2.697,-1.746,-2.939,-0.207,1.090,0.540,2.362,1.006,-1.621,-2.697,-0.974
0:18:05.105,,1.693,3.845,-1.147,-0.671,-0.667,1.136,-1.858,-1.562,0.853,0.543,0.412,-0.305,-1.130,0.338,-0.686,-0.676
0:18:05.105,,3.139,2.081,1.301,0.494,-0.757,0.403,-2.507,-3.716,0.825,3.274,1.074,-1.131,-1.075,-0.093,-2.020,-1.221
0:18:05.106,,2.212,1.210,1.697,-1.134,1.012,1.192,0.223,-4.063,0.392,3.456,-1.375,-1.425,-0.616,-0.110,-0.628,-2.078
0:18:05.106,,3.535,0.847,0.373,1.376,0.179,2.179,-0.511,-3.367,-1.254,2.600,0.594,-0.785,-1.955,0.198,-1.669,-2.465
0:18:05.107,,3.952,1.503,-0.853,0.787,-0.085,1.022,-2.536,-2.269,-1.904,1.296,2.180,-1.583,-0.582,-0.304,0.729,-1.306
0:18:05.107,,3.551,0.622,-0.935,-0.708,1.572,3.746,-1.857,-2.988,-0.059,-0.807,1.457,-0.962,-0.197,-1.287,1.412,-2.695
0:18:05.108,,2.274,2.129,0.057,1.949,0.904,2.163,-1.994,-3.903,0.876,1.128,1.314,-2.793,0.625,-1.124,-1.472,-2.119
0:18:05.108,,1.913,0.962,-1.328,1.553,0.916,1.825,0.846,-3.084,-0.876,1.047,0.811,-0.891,-1.430,1.211,-2.427,-0.995
0:18:05.109,,2.097,-0.070,-1.420,-0.703,0.159,1.859,0.015,-3.366,-1.491,2.867,-0.034,-0.797,-0.309,2.540,-1.108,-0.303
0:18:05.109,,2.691,2.334,-1.111,2.191,-0.611,1.195,-0.397,-3.248,-0.829,1.948,0.898,-2.657,1.332,-1.180,-1.237,-1.437
0:18:05.110,,2.385,0.318,0.652,1.902,-1.819,0.110,-2.530,-4.628,0.347,1.884,0.608,0.210,0.178,0.233,0.238,-0.018
0:18:05.110,,2.694,0.507,0.475,1.188,-0.460,2.201,-0.292,-2.874,-0.987,0.382,-0.902,-2.184,0.494,-1.036,-0.468,1.220
0:18:05.111,,0.895,0.586,-1.196,4.267,-0.998,2.368,-0.709,-3.154,0.613,1.034,-1.250,-0.409,1.175,-2.322,-0.588,-0.409
0:18:05.111,,1.095,1.286,-1.662,2.123,-2.932,1.066,-1.762,-2.243,-0.591,2.037,0.045,0.873,0.831,-0.765,0.342,0.295
0:18:05.112,,1.905,0.516,-1.040,3.190,0.534,0.194,-0.926,-4.262,0.171,3.435,0.851,1.671,-3.272,-1.319,-2.160,0.556
0:18:05.112,,0.629,0.245,-0.829,1.072,1.406,2.513,-1.609,-1.850,2.054,2.651,-0.090,0.604,-3.567,1.227,-3.265,-1.166
0:18:05.113,,0.485,0.209,0.326,1.659,1.796,0.776,-1.016,0.200,-0.692,1.043,-1.337,1.627,-1.148,-1.057,-2.421,-0.513
0:18:05.113,,1.264,0.473,-0.039,2.182,1.473,1.509,-2.099,-2.520,0.242,1.790,0.210,1.048,-1.805,-0.772,-2.297,-0.707
0:18:05.114,,1.875,0.131,1.153,1.293,0.124,1.958,-1.662,-3.233,-1.152,2.640,1.413,1.060,-0.779,-1.383,-2.310,-1.018
0:18:05.114,,1.712,1.592,2.228,0.399,-0.213,1.377,-0.812,-2.407,-0.943,2.398,0.338,-0.161,0.701,-1.354,-2.669,-2.108
0:18:05.115,,-0.844,-0.344,1.022,3.119,0.781,1.158,0.559,-3.456,1.032,0.890,0.875,0.775,-2.024,-0.310,-0.721,-2.454
0:18:05.115,,0.442,-0.744,1.176,4.512,0.379,-1.351,1.557,-3.370,0.870,0.915,1.010,2.190,-0.950,-1.870,-1.513,-3.368
0:18:05.116,,2.936,1.334,-1.078,2.235,1.149,-0.098,1.285,-3.490,-0.914,0.023,1.208,3.415,-0.772,-3.128,-2.101,-2.105
0:18:05.116,,1.553,1.134,1.555,1.693,1.882,1.559,0.708,-3.225,-2.872,-0.665,1.505,0.090,-1.575,-2.023,-0.094,-1.188
0:18:05.117,,0.340,1.177,1.033,1.297,2.660,1.368,-0.307,-4.379,-1.977,0.446,0.778,1.723,-1.124,-2.833,-0.987,0.792
0:18:05.117,,1.415,-0.844,0.266,-0.612,0.323,0.742,-1.739,-3.794,-1.165,3.204,1.726,1.985,0.800,-3.043,-0.115,0.757
0:18:05.118,,2.052,-1.557,-1.273,-0.204,0.106,1.883,-1.226,-2.349,0.384,2.454,0.835,2.007,-1.279,-1.043,0.030,-0.865
0:18:05.118,,0.219,-0.303,-0.013,0.925,0.654,0.843,-2.494,-3.696,-0.067,1.771,1.961,1.968,-0.605,-2.352,0.580,0.583
0:18:05.119,,-0.635,1.088,1.132,0.576,-0.513,1.197,-2.156,-3.004,0.935,1.655,1.309,0.294,-2.053,-1.255,-0.007,1.346
0:18:05.119,,-0.400,-0.734,0.913,-0.375,0.588,0.430,0.285,-3.226,0.528,2.334,2.909,2.420,-3.658,-1.798,0.953,-1.175
0:18:05.120,,-1.977,0.089,2.578,0.018,0.298,-0.399,-1.654,-3.262,0.682,4.014,-1.014,0.950,0.354,0.066,-1.174,0.513
0:18:05.120,,-1.464,2.182,2.425,1.566,0.990,1.258,-1.796,-2.269,-1.185,0.166,0.045,1.145,0.321,-1.893,-1.440,-0.105
0:18:05.121,,-0.089,-2.089,-0.032,2.050,1.503,0.651,-0.322,-1.699,-0.640,0.293,2.388,1.342,0.395,-1.569,-1.615,-0.657
0:18:05.121,,1.183,2.421,-0.873,1.995,0.140,2.849,-0.637,-1.693,-1.634,-0.424,2.833,1.057,-1.671,-3.091,-1.066,-1.327
0:18:05.122,,3.247,-0.387,-0.427,0.439,0.074,1.472,-2.504,-0.845,0.137,2.566,0.901,2.051,-1.052,-1.727,-2.643,-1.370
0:18:05.122,,2.107,1.402,-0.496,1.121,-1.172,1.129,-1.104,-0.544,-0.076,4.157,0.073,1.204,-0.943,-2.075,-3.675,-1.077
0:18:05.123,,0.209,1.340,-0.536,-0.479,-0.736,2.339,0.606,-1.365,1.991,1.559,2.227,-1.063,-2.493,-1.385,-1.592,-0.540
0:18:05.123,,-0.817,2.081,0.124,0.160,0.615,0.150,-2.123,-1.856,0.939,0.835,1.716,-0.726,0.026,-1.297,-0.619,0.707
0:18:05.124,,-1.214,3.789,-0.173,-0.649,-0.294,1.713,-2.202,-3.219,0.762,2.870,0.930,2.167,-1.613,-1.460,-0.541,-0.991
0:18:05.124,,-0.381,4.726,2.539,1.493,1.271,2.993,0.307,-3.103,-1.904,0.567,0.170,-1.234,-1.963,-3.363,-1.525,-0.563
0:18:05.125,,0.603,1.758,1.330,1.019,1.986,3.679,0.003,-0.848,-2.343,0.719,0.114,-2.984,-1.582,-0.649,-1.049,-1.769
0:18:05.125,,0.324,0.877,0.404,0.612,1.842,1.512,-0.215,-0.450,-0.680,1.164,0.805,0.441,-2.829,0.156,-1.099,-2.929
0:18:05.125,,0.472,2.682,1.677,-0.360,0.711,2.136,-0.559,-1.099,1.472,3.378,2.480,-0.030,-3.688,-3.639,-2.754,-2.812
0:18:05.126,,0.329,1.802,2.655,0.610,-0.942,1.899,0.887,-2.202,-0.667,2.377,-0.067,1.939,-0.934,-5.065,-1.150,-1.433
0:18:05.126,,1.384,4.839,1.007,1.708,0.405,2.071,-0.144,-4.841,-0.132,1.465,1.079,0.051,-3.367,-1.906,-0.824,-2.758
0:18:05.127,,0.525,-0.044,-0.745,2.133,-1.179,0.472,0.442,-3.341,0.491,2.810,0.878,1.920,-1.203,-1.453,-1.585,-0.170
0:18:05.127,,0.199,-0.110,-1.041,1.649,-1.420,1.185,0.252,-1.460,-0.039,2.602,0.453,1.592,-1.717,-1.510,-1.811,1.295
0:18:05.128,,0.944,-0.466,-0.786,0.746,0.259,0.418,-1.583,-1.231,0.380,0.681,1.186,2.296,-1.062,-0.228,-2.195,0.643
0:18:05.128,,3.161,-0.435,1.475,-0.149,-1.492,0.559,-0.702,-1.729,0.201,1.663,1.950,2.704,-2.821,-0.367,-2.149,-1.768
0:18:05.129,,3.204,0.242,0.464,2.246,-0.065,1.110,-0.727,-1.617,-0.136,0.010,-0.453,1.199,-1.901,-1.894,0.636,-2.353
0:18:05.129,,2.263,1.354,-0.701,1.524,2.364,-0.411,-1.915,-3.385,-0.827,1.177,-0.939,1.046,0.083,-2.894,0.641,0.681
0:18:05.130,,0.319,1.365,-1.090,0.853,0.008,1.879,-1.012,-4.047,0.917,2.964,1.821,0.192,-0.799,-1.155,-0.567,-1.583
0:18:05.130,,2.092,1.088,-0.141,-0.835,0.735,3.119,0.299,-3.961,-0.765,-0.102,0.550,-0.668,1.241,0.249,-1.456,-1.350
0:18:05.131,,2.979,0.602,2.712,0.746,0.015,1.912,0.809,-4.336,-0.717,1.140,0.391,-0.568,1.111,-2.144,-2.015,-2.661
0:18:05.131,,1.131,0.308,-1.183,2.445,-0.715,1.683,-2.592,-3.956,-0.643,3.017,1.376,0.116,0.240,-0.677,0.127,-0.637
0:18:05.132,,-0.328,-0.054,-0.644,0.785,-0.863,0.587,0.509,-4.199,0.501,1.808,2.928,0.721,-1.354,-0.506,-0.546,0.765
0:18:05.132,,1.010,-2.297,-0.499,-2.459,-2.273,-0.313,-1.305,-1.436,3.021,4.167,1.401,0.371,-1.319,0.333,0.460,1.061
0:18:05.133,,0.446,0.185,-0.240,0.255,-0.945,1.441,-0.992,-1.576,-0.405,3.745,1.393,0.395,-1.653,0.650,-1.480,-1.319
0:18:05.133,,0.510,0.955,0.866,-0.991,-0.586,2.465,-1.408,-3.748,1.153,2.428,1.965,0.861,-0.754,-2.024,-1.202,-0.556
0:18:05.134,,2.351,-2.218,-1.234,0.308,-1.760,0.876,0.229,-2.547,0.697,3.761,1.764,-0.673,2.233,-0.828,-1.733,-1.202
0:18:05.134,,0.564,-1.311,-2.807,1.378,0.210,0.422,0.415,-2.777,-1.282,2.879,1.483,2.389,-0.298,0.202,-0.959,-0.483
0:18:05.135,,0.331,-0.909,-2.508,2.441,2.351,0.831,1.262,-1.245,-0.161,-1.274,0.493,2.220,-0.454,-1.084,-1.033,-1.355
0:18:05.135,,3.015,-0.661,-0.501,3.099,0.220,0.180,0.907,-1.701,-0.956,0.412,3.801,0.601,-2.948,-2.165,-2.452,-0.794
0:18:05.136,,5.328,0.475,0.540,2.750,-0.818,0.230,0.831,-2.166,-0.914,0.953,2.038,-0.288,-1.054,-2.678,-3.839,-1.324
0:18:05.136,,4.479,-0.066,1.489,1.975,-1.946,2.793,-0.166,-2.838,0.628,2.123,0.709,-0.184,0.354,-2.318,-3.553,-3.588
0:18:05.137,,1.336,-0.496,0.877,4.162,-2.009,-0.300,-2.451,-2.549,1.581,1.638,2.976,-0.650,-1.089,-1.453,-1.567,-0.118
0:18:05.137,,0.323,-2.389,-1.182,4.413,-0.900,1.626,-1.378,-2.803,0.694,1.348,3.077,0.521,-1.548,-1.678,0.132,-0.332
0:18:05.138,,-0.395,-0.807,-1.734,3.736,-0.892,1.786,-0.848,-3.805,0.566,1.857,0.799,1.443,-1.167,-0.467,0.001,0.042
0:18:05.138,,0.944,0.648,-0.094,1.540,0.562,1.146,0.119,-2.499,0.034,3.153,0.266,-2.230,-2.034,-0.161,0.624,-2.034
0:18:05.139,,0.433,-0.802,-0.340,3.386,0.952,2.020,-0.402,-1.858,-2.032,2.492,2.206,-1.549,-2.372,-0.584,0.124,-1.661
0:18:05.139,,-2.459,-0.810,1.444,1.093,0.432,-0.533,1.099,-1.707,0.586,1.200,3.268,0.805,-1.248,-2.321,0.557,-1.460
0:18:05.140,,-0.070,1.458,1.653,-0.045,-2.750,-0.004,1.016,-3.318,1.351,1.804,1.487,1.109,-2.079,-0.496,1.904,-3.127
0:18:05.140,,-0.130,2.300,1.955,-0.367,-0.655,-0.711,-0.700,-4.706,1.346,2.341,1.874,2.315,-0.492,-0.263,-2.308,-1.802
0:18:05.141,,-0.453,0.520,-0.418,-0.320,-1.749,1.165,-0.995,-2.865,0.525,2.841,1.939,2.132,1.022,-0.806,-0.561,-1.929
0:18:05.141,,-0.760,0.612,0.406,-0.513,0.225,-0.348,0.465,-4.587,2.258,1.320,2.023,2.896,-2.034,-0.689,0.674,-2.066
0:18:05.142,,-0.752,-0.013,-1.099,-1.068,-1.155,0.733,1.317,-1.557,2.221,0.499,0.268,2.609,-0.158,-0.442,-0.650,-0.754
0:18:05.142,,-0.849,0.860,2.504,0.213,0.058,0.421,-1.097,-2.327,1.713,1.706,-0.517,1.109,0.628,-0.215,-2.970,-1.286
0:18:05.143,,-0.217,-0.401,-0.501,2.118,0.349,2.860,-0.137,-2.958,-0.995,1.388,0.959,1.129,-0.562,-0.691,-0.779,-1.545
0:18:05.143,,0.413,-0.514,-0.554,0.273,1.950,0.915,-0.583,-2.544,-0.085,2.915,0.760,0.638,-0.582,0.259,-0.963,-2.226
0:18:05.144,,1.246,-0.759,1.177,0.046,1.201,0.920,-1.505,-2.571,-0.824,0.043,1.852,0.904,0.369,-0.266,-1.097,-0.628
0:18:05.144,,0.788,2.516,-0.343,-0.561,0.980,0.979,0.827,-2.958,-1.616,0.508,1.695,-0.029,1.881,0.041,-1.394,-3.208
0:18:05.145,,3.177,2.541,-0.283,0.805,-0.878,0.035,-0.112,-2.856,-1.894,0.446,2.557,-0.920,0.670,0.155,-0.977,-2.500
0:18:05.145,,2.258,1.839,-0.204,1.167,0.050,-0.315,0.376,-3.296,-0.951,-0.675,1.740,-0.288,-0.407,-0.609,1.468,-2.073
0:18:05.146,,3.222,-0.643,-1.385,0.010,1.195,1.175,2.037,-1.436,0.190,-2.458,0.871,0.650,-0.733,-0.524,1.179,-3.457
0:18:05.146,,1.065,-1.179,0.030,2.372,0.992,0.035,-0.855,-3.028,0.440,0.067,1.708,1.031,-0.250,0.566,-0.926,-2.093
0:18:05.146,,2.059,-1.101,-0.230,1.084,0.478,1.887,1.624,-2.179,-1.755,0.059,-0.956,0.746,0.085,-0.166,0.843,-2.397
0:18:05.147,,1.568,-0.998,-0.490,2.032,0.288,3.498,-0.335,-3.864,-4.252,0.874,-2.256,0.185,1.135,1.030,2.412,-0.777
0:18:05.147,,0.651,0.736,-1.015,1.013,-0.375,-2.023,-1.451,-2.553,-2.167,2.110,-1.536,0.205,1.847,1.751,2.175,0.730
0:18:05.148,,-0.770,0.895,0.708,-0.746,-0.956,-1.159,-1.714,-3.764,-0.770,0.846,-0.014,0.234,1.911,2.380,2.476,0.471
0:18:05.148,,1.144,-0.297,-1.411,-0.770,-1.566,0.699,-0.452,-2.911,-1.569,1.751,1.178,-0.060,0.991,1.285,0.734,1.228
0:18:05.149,,1.197,-1.515,-0.429,-1.463,-0.631,-1.295,-2.355,-4.302,0.090,2.201,1.929,2.683,2.605,-0.213,0.992,0.546
0:18:05.149,,1.267,1.823,0.648,-0.942,-1.437,-1.875,-1.880,-3.798,-1.963,2.311,1.397,2.849,2.585,1.239,0.312,-2.544
0:18:05.150,,2.237,1.854,0.338,0.571,0.574,0.074,-2.518,-4.125,-2.221,1.552,-0.453,1.431,2.272,0.028,-0.578,-0.995
0:18:05.150,,4.138,0.424,1.301,1.814,-1.137,0.823,-1.233,-2.831,-2.355,1.167,-0.523,0.900,0.832,-3.207,1.082,-1.253
0:18:05.151,,2.608,1.300,-0.989,1.358,-3.154,2.228,-3.027,-0.684,-1.800,1.167,-0.596,-0.493,0.981,-0.115,1.261,-0.004
0:18:05.151,,1.342,2.118,-1.404,1.213,-0.195,2.108,-1.882,-2.744,-2.251,-0.023,-0.395,0.462,1.028,-0.465,1.301,-0.186
0:18:05.152,,0.209,2.417,-0.158,0.679,-1.094,0.817,-1.691,-0.548,-3.192,-0.569,0.458,2.345,0.422,-0.910,-0.010,0.781
0:18:05.152,,-0.308,1.238,-0.148,1.366,-0.729,1.858,-1.821,-2.779,-0.779,1.412,0.773,0.849,-0.281,0.372,-1.429,0.428
0:18:05.153,,-1.189,2.323,-0.688,1.749,-1.269,1.613,-1.587,-4.773,1.546,0.746,1.513,0.587,0.801,-0.177,-2.914,1.743
0:18:05.153,,0.149,3.410,0.022,1.053,-1.478,1.947,0.459,-5.711,-0.621,-0.172,0.040,2.973,-1.469,-0.672,-1.265,1.242
0:18:05.154,,0.970,-0.448,0.496,1.348,-0.765,2.467,-0.329,-5.198,0.812,0.233,-1.660,4.797,-3.059,0.022,-0.729,1.081
0:18:05.154,,0.333,-1.663,-0.025,2.275,-0.932,1.671,-0.559,-4.634,-1.969,0.296,1.015,3.109,-0.101,1.736,-0.837,0.159
0:18:05.155,,1.332,-2.470,1.483,3.220,0.635,1.315,0.109,-1.975,-1.868,1.651,-0.050,2.994,1.498,-2.879,-2.654,-2.472
0:18:05.155,,-0.022,0.677,2.138,4.293,1.963,2.043,-0.119,-1.271,-1.062,0.644,-0.165,1.304,-0.514,-2.324,-3.408,-4.271
0:18:05.156,,0.632,1.446,3.415,5.323,3.820,2.749,1.133,-1.696,-1.012,-1.138,-0.216,2.500,-2.426,-5.548,-3.582,-5.522
0:18:05.156,,1.714,1.966,0.891,3.158,2.807,4.317,-0.017,-1.768,-0.572,0.906,1.301,2.652,-2.715,-5.891,-4.167,-4.484
0:18:05.157,,2.666,5.062,-0.727,4.245,1.014,3.141,-1.921,-2.571,-1.046,0.649,0.975,0.202,-1.799,-5.005,-2.832,-1.961
0:18:05.157,,-0.429,2.658,0.343,5.549,4.118,6.075,0.225,-3.366,-0.697,0.330,-1.550,0.323,-2.863,-4.532,-1.193,-4.971
0:18:05.158,,0.736,4.054,1.895,3.339,2.388,4.264,2.526,0.895,0.189,0.425,1.934,1.119,-4.852,-5.757,-5.013,-8.228
0:18:05.158,,3.778,3.014,1.638,3.909,4.656,2.852,1.859,0.466,0.053,2.322,0.505,-2.159,-5.176,-5.732,-6.316,-5.536
0:18:05.159,,3.245,1.010,4.470,1.033,2.464,3.845,3.136,0.280,-0.515,0.895,1.702,-0.953,-5.807,-3.746,-4.119,-6.837
0:18:05.159,,2.362,2.387,3.381,3.220,1.342,3.439,1.199,2.304,-1.665,0.193,-0.555,-0.021,-3.491,-5.793,-4.870,-3.502
0:18:05.160,,3.581,1.598,1.517,4.382,3.344,2.676,1.264,0.000,-0.972,-0.117,1.247,0.957,-4.476,-3.253,-6.634,-5.223
0:18:05.160,,1.883,1.057,0.335,3.424,1.502,2.071,1.077,-1.737,-1.338,1.590,1.768,1.926,-2.147,-5.289,-2.629,-3.535
0:18:05.161,,3.657,2.329,-0.341,2.245,1.733,-0.549,1.242,0.412,-0.670,2.013,1.248,-1.470,-3.205,-3.596,-1.726,-3.340
0:18:05.161,,2.186,0.840,1.577,1.396,1.659,0.538,1.146,-0.575,-1.130,-0.135,2.957,-1.291,-1.341,-3.314,-0.649,-3.830
0:18:05.162,,1.036,2.007,1.499,1.148,0.656,2.562,1.686,-2.966,0.684,-0.194,0.177,1.373,-2.272,-3.104,-2.589,-1.684
0:18:05.162,,1.788,-1.025,2.575,1.324,-0.344,1.678,2.036,-0.676,-1.227,2.547,1.220,1.283,-3.830,-2.206,-5.135,-0.042
0:18:05.163,,2.212,-0.827,3.093,-0.814,0.233,1.386,2.929,1.249,-1.175,1.594,1.674,0.086,-4.368,-1.626,-2.824,-2.722
0:18:05.163,,1.096,1.026,0.647,-1.517,0.440,1.196,1.813,-0.996,0.816,0.349,1.306,3.549,-3.110,-3.219,-0.427,-2.883
0:18:05.164,,1.202,0.876,2.031,-0.314,-0.159,2.395,-0.823,-3.211,0.406,1.456,0.980,2.702,-3.814,-1.906,-0.103,-1.617
0:18:05.164,,1.257,0.555,2.631,-1.101,-0.096,2.720,-0.493,-1.620,0.189,3.368,-0.679,4.406,-2.971,-2.727,-2.041,-3.367
0:18:05.165,,-0.239,-0.632,-0.054,-1.105,0.641,2.690,0.981,-3.797,2.538,3.272,0.065,2.910,-2.660,-1.512,-1.253,-1.870
0:18:05.165,,2.285,0.795,-0.650,0.610,0.927,0.469,0.101,-4.823,0.462,-1.230,-0.277,4.323,-0.648,-0.853,-0.127,-1.238
0:18:05.166,,1.585,-0.065,0.431,0.670,0.063,-1.039,0.756,-2.588,-0.767,-0.531,0.243,3.514,1.179,-1.921,-0.634,-0.766
0:18:05.166,,2.834,2.228,-0.502,0.024,1.060,1.303,0.849,-0.763,-1.328,0.451,-0.897,2.883,-1.323,-3.325,-1.778,-1.794
0:18:05.167,,2.689,0.243,-0.887,0.402,-0.099,2.086,1.152,-0.914,-0.244,2.676,0.420,0.663,-2.690,-2.493,-1.285,-1.703
0:18:05.167,,3.201,1.983,0.464,-1.820,-0.370,0.224,1.863,-0.418,-2.364,3.533,-0.774,-1.310,-1.671,-1.874,1.053,-1.633
0:18:05.167,,3.965,1.070,0.325,-1.663,0.411,0.848,-1.253,-3.189,-0.334,1.820,-0.788,1.955,-0.166,-0.789,-1.015,-1.209
0:18:05.168,,3.647,0.436,-0.490,-0.962,-0.093,0.342,-3.092,-2.321,0.430,-0.877,1.819,2.352,-0.246,-0.088,-1.368,0.478
0:18:05.168,,3.613,1.041,0.423,0.644,0.006,-0.915,-1.437,-2.963,-1.877,1.679,0.455,1.350,1.373,-2.247,1.138,-2.334
0:18:05.169,,2.419,0.852,0.860,-2.652,-0.142,0.126,-2.562,-0.509,-1.332,1.134,1.044,1.861,-0.719,-1.957,1.491,0.089
0:18:05.169,,1.411,-0.253,1.807,-3.200,-1.284,1.223,-2.352,-0.537,0.006,0.923,2.027,-0.227,0.431,-0.102,0.562,-0.450
0:18:05.170,,1.427,-0.601,1.594,-1.024,0.300,-0.429,-2.104,-5.216,0.951,1.142,2.115,0.961,2.069,-0.814,-0.822,0.576
0:18:05.170,,0.468,0.438,0.501,-2.682,-1.899,-1.375,0.348,-4.529,0.677,2.157,1.905,1.310,2.662,-0.194,-1.082,1.252
0:18:05.171,,0.309,-0.736,-1.484,-0.928,-3.304,-0.953,-1.031,-1.561,-1.090,1.630,0.191,0.114,2.867,1.778,3.087,1.110
0:18:05.171,,0.701,0.100,-3.113,-2.846,-1.147,2.188,-2.883,-1.094,-1.495,1.066,1.843,-0.419,1.756,1.935,2.115,1.310
0:18:05.172,,1.566,-0.375,-1.940,-2.544,-2.989,2.097,-1.081,-2.639,-0.127,1.299,1.405,-2.591,2.727,1.665,1.279,2.335
0:18:05.172,,-0.106,1.451,-3.158,-3.681,-1.047,0.791,-2.958,-3.993,0.772,-0.564,1.464,-0.080,1.927,2.234,3.262,3.726
0:18:05.173,,-1.301,0.352,-5.502,-2.079,-2.086,-1.723,-0.849,-2.749,-1.217,2.259,2.870,-0.101,2.345,4.440,3.580,1.793
0:18:05.173,,-1.182,-1.851,-5.467,-2.797,-0.236,-1.072,1.736,-1.134,-2.360,2.491,0.946,0.854,1.872,3.613,3.747,0.906
0:18:05.174,,0.235,-3.580,-4.950,-2.137,-2.544,-0.145,1.004,-0.961,-0.303,2.039,1.818,-0.726,2.715,2.128,3.833,1.555
0:18:05.174,,-0.116,-1.565,-2.914,-3.355,-3.068,1.194,-1.490,-1.623,0.343,2.419,2.349,0.635,0.243,0.894,4.543,1.522
0:18:05.175,,-0.383,-0.902,-2.959,-3.364,-0.469,0.607,0.005,-1.555,2.182,1.652,2.084,2.361,0.447,-0.650,0.567,0.235
0:18:05.175,,0.313,-0.948,-2.315,-1.482,-0.100,0.428,-0.421,-3.870,-0.094,1.927,2.795,1.742,2.535,-0.343,-0.445,0.290
0:18:05.176,,-0.396,-0.294,-1.403,-3.310,-0.676,0.016,-1.193,-4.510,-0.517,2.938,4.685,1.511,1.332,1.483,-0.444,0.760
0:18:05.176,,-1.930,-1.089,-3.073,-3.518,-0.121,-0.241,-0.530,-4.800,1.537,2.032,2.696,0.896,3.705,2.543,-0.635,2.630
0:18:05.177,,-2.879,-0.805,-3.689,-1.573,-2.031,-1.130,-1.488,-4.470,1.466,1.949,1.985,1.709,3.620,2.347,2.486,2.468
0:18:05.177,,-0.577,-1.398,-4.410,-2.290,-1.294,-0.066,-3.121,-3.153,-0.382,0.614,4.038,0.625,3.291,3.206,4.545,0.281
0:18:05.178,,-2.718,-1.690,-3.788,-1.729,-0.696,0.069,-1.643,-3.666,-0.335,1.455,4.355,-0.717,0.971,1.622,5.953,2.538
0:18:05.178,,-2.328,-1.536,-2.511,-2.606,0.116,0.294,-0.899,-5.420,1.445,3.882,2.815,-1.267,0.566,1.487,3.158,2.686
0:18:05.179,,-2.856,-1.621,0.016,-1.023,-1.738,-0.623,-0.449,-3.609,-0.863,3.438,2.903,-0.609,2.640,-0.246,2.295,2.224
0:18:05.179,,-0.247,0.582,0.215,-0.923,-1.619,-0.119,-0.892,-2.488,0.095,-0.320,1.531,1.632,1.756,0.142,0.608,0.047
0:18:05.180,,0.762,-1.053,-1.517,-0.313,-2.434,-0.892,-1.396,-4.100,0.476,3.073,0.710,3.199,1.343,-0.031,-0.166,2.397
0:18:05.180,,0.021,0.298,-2.249,-2.079,-1.686,-0.476,-1.719,-2.950,-0.983,1.744,1.367,2.260,1.183,1.067,2.100,1.991
0:18:05.181,,0.106,-1.112,-2.608,-0.960,-3.219,1.104,-2.466,-4.054,-0.409,2.467,3.925,1.472,2.316,1.290,2.125,-0.074
0:18:05.181,,-0.659,1.305,-3.127,-1.647,-0.543,-0.200,-0.337,-3.783,-0.133,0.915,3.162,0.986,0.446,1.501,2.030,0.039
0:18:05.182,,1.706,-1.242,-1.989,-1.851,-0.662,0.189,-1.830,-4.155,-1.817,2.179,3.309,2.245,1.335,-0.233,1.287,1.523
0:18:05.182,,2.835,-0.556,-1.744,-0.209,-1.566,0.541,-0.399,-1.654,-1.178,0.643,2.523,0.673,-0.329,1.056,0.877,-1.549
0:18:05.183,,0.917,0.409,-0.612,-1.268,-1.001,1.732,0.238,-3.381,-1.455,0.555,3.503,1.177,-0.038,-0.243,0.731,-1.150
0:18:05.183,,2.028,2.923,1.599,-1.364,1.179,3.215,-0.097,-4.093,-0.677,0.178,0.760,-0.330,-0.772,-2.046,-0.266,-2.136
0:18:05.184,,5.727,4.653,1.364,2.956,2.060,4.380,0.452,-0.861,-1.949,-0.848,-0.049,-0.933,-4.167,-3.956,-4.299,-4.585
0:18:05.184,,6.358,4.988,5.395,4.919,4.268,5.530,1.263,-1.881,-2.035,-1.023,-0.492,-2.957,-5.662,-6.411,-6.194,-6.026
0:18:05.185,,5.319,3.108,6.272,4.458,3.377,2.430,2.878,-0.411,-1.368,-1.324,2.308,0.455,-7.267,-7.561,-7.563,-5.220
0:18:05.185,,2.874,3.920,2.458,3.271,2.679,1.931,1.644,-0.519,-2.642,-0.330,1.126,0.783,-4.919,-4.334,-3.326,-4.523
0:18:05.186,,1.253,1.633,1.416,3.617,-0.423,1.411,2.170,-0.050,-0.872,1.390,1.618,2.646,-4.706,-2.211,-4.944,-4.021
0:18:05.186,,2.181,-0.711,1.889,1.130,-1.452,2.520,1.196,0.023,-0.206,-0.034,1.917,0.630,-3.200,0.058,-2.749,-3.066
0:18:05.187,,3.895,-1.204,-1.511,0.033,-0.028,1.664,0.642,-2.525,-0.867,0.242,1.399,2.664,-3.091,-0.114,-1.193,-0.078
0:18:05.187,,3.077,1.835,-2.114,0.833,0.105,1.017,0.292,-1.121,-0.090,0.299,1.132,1.675,-0.957,-2.499,-3.044,-0.434
0:18:05.188,,1.762,1.460,-2.165,0.148,0.516,1.995,-0.463,-0.074,-0.001,0.548,1.257,1.412,-2.533,-2.246,0.327,-2.019
0:18:05.188,,-1.732,-0.928,-0.133,-1.009,-1.895,-0.824,-1.266,-0.925,1.023,3.502,0.716,1.751,1.142,2.218,0.521,-2.152
0:18:05.188,,-2.452,-1.315,-1.364,-3.039,-2.833,-0.026,-1.742,-2.485,-1.069,3.586,2.661,3.076,1.904,2.321,2.980,-0.140
0:18:05.189,,-2.023,-4.815,-3.267,-3.417,-1.604,-0.567,-0.268,-1.922,-1.081,1.752,1.634,4.323,5.029,1.545,1.628,3.033
0:18:05.189,,-2.184,-1.926,-2.086,-1.380,-0.703,-0.762,-1.163,-2.777,-0.030,1.635,1.082,2.537,4.090,1.652,-0.385,2.340
0:18:05.190,,-1.618,-1.111,-5.373,-0.960,-0.829,0.288,-1.748,-4.062,-1.836,1.906,2.862,1.380,3.386,3.514,3.532,0.762
0:18:05.190,,0.036,0.607,-1.303,-0.369,-2.035,-0.336,0.401,-4.496,-1.150,1.608,2.265,1.339,1.726,0.436,1.362,0.023
0:18:05.191,,1.198,-0.217,-0.333,-1.828,-0.943,0.564,-0.244,-3.417,-0.219,1.974,2.666,0.840,-1.102,-0.413,1.310,0.040
0:18:05.191,,1.828,0.483,-0.348,-0.464,-2.193,0.520,-1.627,-1.688,-0.238,3.056,1.621,0.844,0.145,-0.507,-1.417,-0.012
0:18:05.192,,1.651,0.450,1.056,0.138,-0.519,0.673,-0.418,-0.932,-0.811,2.591,-1.092,0.565,0.299,-0.276,-0.564,-2.683
0:18:05.192,,2.037,0.197,1.616,-1.556,0.778,1.290,-0.539,-2.215,-0.031,0.183,1.419,1.760,1.182,-2.179,-2.261,-1.689
0:18:05.193,,2.251,-0.908,0.557,0.402,0.270,2.692,-0.954,-0.882,-1.406,1.685,2.342,0.896,1.307,-3.647,-2.187,-2.293
0:18:05.193,,3.352,1.279,2.449,0.870,0.053,2.865,-0.520,-1.375,-0.135,0.871,2.367,-0.852,-2.909,-2.350,-2.920,-3.172
0:18:05.194,,2.370,2.038,0.746,0.203,2.541,2.076,1.794,-3.160,0.725,2.577,1.943,-0.141,-3.355,-3.006,-1.525,-5.790
0:18:05.194,,4.995,4.224,2.876,5.013,4.366,4.786,2.951,-0.990,-3.559,0.590,3.823,-0.088,-5.523,-6.333,-8.356,-8.786
0:18:05.195,,5.565,5.204,1.920,4.933,4.118,6.352,4.364,-0.234,-1.354,4.208,2.268,0.869,-8.455,-11.215,-9.869,-8.787
0:18:05.195,,8.814,4.265,3.284,3.137,3.614,6.801,2.670,2.136,1.522,3.910,2.098,0.700,-11.676,-9.208,-10.061,-12.088
0:18:05.196,,8.316,0.291,5.733,4.650,5.137,4.533,3.009,3.321,0.112,1.454,-1.116,2.016,-9.479,-9.855,-8.862,-9.389
0:18:05.196,,7.918,1.770,6.325,2.849,4.479,4.811,2.207,3.109,-0.142,-0.892,-0.378,0.112,-11.011,-6.897,-6.682,-7.551
0:18:05.197,,7.144,0.153,3.806,0.731,2.875,3.460,0.390,-0.936,-2.122,2.156,0.363,2.285,-7.787,-5.578,-2.905,-4.071
0:18:05.197,,4.523,1.521,2.341,3.488,2.822,1.191,-0.809,-1.856,-0.093,0.786,-0.362,2.606,-4.152,-5.885,-1.308,-4.681
0:18:05.198,,3.390,1.080,0.847,2.814,0.834,0.034,-1.826,-3.290,-3.468,-1.764,1.299,3.294,-0.502,-1.750,0.690,-1.767
0:18:05.198,,4.551,-0.519,0.925,1.377,-0.436,1.494,-2.193,-2.954,-5.220,-2.763,-0.381,-0.273,1.990,0.136,3.549,0.625
0:18:05.199,,3.095,-0.066,-1.138,0.898,-0.073,-0.540,-1.143,-3.619,-3.670,-3.375,-0.701,1.581,1.994,2.972,1.858,1.821
0:18:05.199,,0.304,-0.894,-1.437,0.697,0.660,-0.225,-1.097,-2.354,-1.232,-3.271,-0.338,-0.099,3.161,2.351,1.966,1.924
0:18:05.200,,1.054,-0.106,-2.038,1.297,1.065,0.730,-1.489,-2.841,-3.025,-3.478,1.456,0.032,3.582,0.198,1.863,1.584
0:18:05.200,,0.700,-0.237,-3.044,0.539,0.355,-0.183,-1.395,-3.241,-3.478,-0.344,-2.127,2.384,3.515,1.013,2.706,2.918
0:18:05.201,,-0.526,-1.546,-2.253,1.271,-1.353,-0.916,0.775,-5.206,-4.691,0.046,-1.071,1.503,6.403,2.942,1.612,3.047
0:18:05.201,,-1.247,-1.594,-2.765,-0.365,-2.242,-0.259,-2.007,-4.175,-3.879,-0.159,0.232,-0.399,5.176,4.288,7.366,2.132
0:18:05.202,,-3.233,-1.551,-0.991,0.830,-0.041,-0.120,-3.163,-5.216,-2.132,1.928,1.237,0.240,3.441,3.358,3.485,1.825
0:18:05.202,,-1.308,-2.456,-2.855,1.490,-0.807,0.264,-3.277,-4.364,-2.570,-0.958,2.097,0.194,5.474,2.352,2.649,4.139
0:18:05.203,,-2.000,-0.743,-1.173,-0.258,-0.615,-2.039,-1.980,-3.129,-1.989,-0.568,0.306,2.550,2.160,4.177,1.667,3.767
0:18:05.203,,0.527,-0.865,-2.084,-0.993,-0.146,-1.064,-0.487,-2.337,-3.232,-0.959,1.203,3.297,3.003,0.143,0.946,2.962
0:18:05.204,,-0.327,-1.543,-1.198,-0.640,0.219,0.116,0.121,-1.962,-4.861,-1.748,2.569,0.379,2.580,1.335,2.944,2.007
0:18:05.204,,-1.359,-2.498,0.101,-0.793,2.882,-0.532,-0.348,-1.174,-4.149,-2.176,0.091,2.243,2.368,2.880,1.231,1.158
0:18:05.205,,-0.601,-0.072,1.398,-0.301,1.882,1.971,0.032,-2.720,-3.300,-1.231,-0.737,2.059,-0.278,-0.160,1.493,0.661
0:18:05.205,,-1.876,-1.100,2.573,1.006,1.103,0.888,0.797,-0.620,-0.990,-0.320,-1.094,0.699,-1.001,-0.394,1.581,-1.234
0:18:05.206,,2.303,-2.781,2.076,3.518,1.903,0.150,0.213,-1.392,-3.102,-0.167,0.418,1.808,-0.988,-2.009,-0.638,-1.318
0:18:05.206,,2.460,-1.637,0.327,2.867,1.595,0.810,0.742,-1.726,-2.937,-0.275,1.597,2.010,-0.687,-1.072,-1.995,-2.151
0:18:05.207,,3.297,-1.675,3.078,2.177,3.491,2.211,-0.871,-1.845,-3.203,-0.952,-0.165,2.114,-0.024,-0.914,-2.679,-4.150
0:18:05.207,,2.033,0.991,2.077,1.471,3.629,1.377,-0.749,-4.416,-3.020,-1.482,-0.171,2.364,-0.266,-0.472,-1.816,-1.468
0:18:05.208,,1.492,-1.587,-1.651,1.210,1.048,0.620,-1.300,-4.251,-2.058,0.305,0.071,1.848,1.465,-0.200,2.390,0.600
0:18:05.208,,0.489,-2.202,-3.012,-1.014,-1.871,-1.388,-0.216,-3.339,-0.646,0.989,1.560,1.193,2.760,1.127,1.134,4.485
0:18:05.208,,-0.063,-2.438,-3.446,-3.091,-3.751,-3.853,-2.355,-5.175,-0.529,1.791,1.106,-0.180,4.626,5.423,4.871,7.014
0:18:05.209,,1.529,-2.311,-1.360,-2.909,-2.962,-3.615,-2.128,-5.414,-1.359,-1.030,3.009,3.487,5.937,3.539,1.940,3.576
0:18:05.209,,2.509,0.635,-4.390,-2.188,-4.933,-2.990,-3.162,-3.365,0.785,0.096,4.232,3.994,4.074,1.872,1.140,1.753
0:18:05.210,,1.818,2.093,-2.461,-1.293,-2.907,-2.196,-2.641,-5.216,1.199,4.311,3.043,1.759,4.213,-0.723,0.493,-1.593
0:18:05.210,,4.472,3.986,-1.062,-0.195,-1.525,1.304,-1.453,-2.326,0.282,3.118,5.011,3.087,-2.126,-4.322,-2.408,-5.933
0:18:05.211,,5.823,6.967,1.344,2.564,1.166,-0.191,-0.644,-2.350,2.137,0.951,4.734,3.245,-4.970,-7.335,-7.179,-6.179
0:18:05.211,,8.879,4.265,2.945,3.448,1.917,-0.950,-0.878,-0.906,1.972,3.683,4.296,3.975,-7.404,-9.454,-7.171,-8.545
0:18:05.212,,9.119,4.258,5.296,3.422,2.338,0.829,1.909,-1.257,1.551,2.424,4.595,2.975,-8.133,-9.719,-8.188,-11.382
0:18:05.212,,10.703,4.169,4.586,2.200,1.728,-0.084,1.792,-1.475,0.076,3.233,-0.711,1.025,-6.776,-6.509,-7.063,-6.982
0:18:05.213,,7.984,4.419,3.095,1.827,1.362,1.816,3.147,-1.068,-0.418,1.799,-0.096,1.299,-7.012,-6.194,-6.026,-6.004
0:18:05.213,,6.713,3.623,0.439,0.431,1.663,2.359,0.584,-2.515,-2.010,2.125,0.971,1.767,-3.335,-4.930,-3.119,-4.682
0:18:05.214,,4.047,3.891,0.239,-0.767,1.680,1.822,-0.705,-3.851,0.578,1.024,0.022,-0.729,-2.274,-1.908,-1.623,-1.562
0:18:05.214,,3.147,0.832,1.430,-1.836,1.292,0.130,0.549,-1.420,-0.274,1.115,1.254,0.455,-2.517,-2.159,0.396,-2.516
0:18:05.215,,1.690,0.347,2.242,0.243,0.370,1.122,-0.617,-0.759,-0.032,1.920,2.192,-0.593,-0.977,-2.839,-1.412,-2.860
0:18:05.215,,0.793,1.777,3.047,2.217,1.253,1.899,0.283,-1.099,0.983,1.850,1.083,-2.936,-1.848,-2.652,-2.439,-4.205
0:18:05.216,,-0.903,1.230,3.557,2.294,1.240,1.982,1.812,-1.065,-0.207,1.759,1.580,0.648,-3.382,-3.758,-3.402,-3.430
0:18:05.216,,-2.331,2.632,4.328,1.670,3.873,3.748,2.526,0.344,-0.850,1.552,2.118,-0.212,-3.421,-5.502,-5.898,-4.589
0:18:05.217,,-2.600,-1.088,3.762,2.665,3.320,4.808,3.421,1.758,1.594,3.827,0.976,-2.456,-5.467,-4.368,-4.905,-5.240
0:18:05.217,,1.884,0.119,5.073,1.851,5.239,5.261,4.536,-0.422,1.829,2.017,1.066,-1.160,-7.494,-5.619,-6.692,-7.363
0:18:05.218,,4.430,2.160,6.262,3.359,4.410,5.045,1.922,-2.379,-0.101,2.353,2.128,0.718,-6.451,-7.112,-7.328,-9.475
0:18:05.218,,3.669,2.104,6.339,5.711,3.548,5.026,2.412,-1.089,-0.763,1.621,3.186,2.278,-6.575,-9.355,-7.723,-10.283
0:18:05.219,,3.427,2.075,5.241,1.572,4.547,3.095,3.300,-0.098,-0.380,1.881,3.890,2.929,-6.884,-7.605,-7.230,-9.853
0:18:05.219,,4.116,1.368,6.435,2.088,3.389,4.976,3.517,-0.170,0.617,2.077,1.429,1.905,-7.839,-6.542,-8.717,-8.683
0:18:05.220,,5.423,1.637,6.491,1.439,1.590,3.234,1.742,1.991,0.083,1.516,2.025,-0.084,-5.480,-6.374,-8.005,-7.207
0:18:05.220,,5.496,1.041,5.558,3.681,2.806,3.505,-0.038,0.739,-0.164,3.385,1.892,-1.106,-4.672,-7.815,-5.005,-9.262
0:18:05.221,,5.494,1.375,6.478,1.040,3.052,3.144,2.876,2.107,0.016,1.297,2.647,-2.464,-5.147,-7.009,-5.848,-8.918
0:18:05.221,,4.774,2.201,3.476,-0.095,3.146,1.949,-0.851,1.155,-1.761,0.656,3.302,-2.335,-2.826,-4.985,-3.864,-4.037
0:18:05.222,,5.149,2.226,3.020,1.693,1.801,2.349,0.315,1.028,-0.567,0.591,2.233,-3.027,-3.967,-5.294,-3.782,-3.650
0:18:05.222,,3.232,1.669,3.694,0.262,2.488,3.064,2.892,-1.082,-2.197,0.112,2.529,-3.141,-3.138,-4.441,-2.088,-3.952
0:18:05.223,,1.301,2.157,0.728,0.581,0.287,-0.104,-0.102,-2.642,-1.799,1.770,4.119,-1.032,-0.528,-1.894,-0.421,-2.338
0:18:05.223,,-0.627,-0.808,-0.090,1.191,-0.364,0.114,-0.727,-2.738,-0.148,0.689,0.144,0.164,2.207,-1.011,1.146,0.863
0:18:05.224,,-1.291,-0.697,0.658,0.504,-0.978,-0.577,-2.401,-3.718,-1.429,2.134,3.718,-0.841,3.117,1.133,1.013,-0.361
0:18:05.224,,-1.453,-1.454,-1.555,-1.242,-1.709,-1.697,-1.404,-4.063,-0.103,1.525,1.205,1.093,3.918,1.435,3.053,2.417
0:18:05.225,,-1.674,-2.076,-0.352,-1.778,-2.815,-0.916,-0.689,-2.959,-0.227,0.348,0.411,0.911,4.267,1.645,2.462,3.374
0:18:05.225,,-0.360,-0.462,-1.359,-1.972,-1.781,-1.620,-2.014,-4.660,-0.702,1.850,0.618,-1.079,3.785,3.903,2.568,3.235
0:18:05.226,,-2.263,-1.567,0.097,-1.499,-1.853,-1.656,-4.193,-3.684,-1.673,0.436,1.715,-2.124,3.961,4.437,5.305,4.564
0:18:05.226,,-3.032,-4.394,-1.778,-1.826,0.323,-0.318,-1.654,-3.959,-1.073,1.924,2.599,-2.977,3.888,3.075,4.595,4.577
0:18:05.227,,-3.915,-2.457,-0.672,-3.063,-2.445,0.177,-2.070,-3.654,-0.488,1.306,1.408,-2.743,5.593,4.557,3.598,4.939
0:18:05.227,,-3.059,-1.924,-2.423,-3.881,-3.163,-1.727,-1.689,-5.507,-0.566,0.595,4.221,-2.670,5.015,4.357,4.945,7.381
0:18:05.228,,-1.555,-1.981,-1.514,-2.514,-1.897,-2.716,-2.575,-2.082,-0.112,0.256,3.070,-2.335,2.668,5.191,3.418,4.745
0:18:05.228,,1.193,-0.158,-1.599,-2.039,-1.020,1.688,-1.129,-2.225,-2.605,0.081,1.570,-0.739,1.312,2.784,1.772,1.241
0:18:05.229,,3.306,1.544,0.399,1.595,-0.390,0.665,-2.205,-1.538,1.575,1.686,0.062,-1.309,0.873,-1.095,-3.472,-1.708
0:18:05.229,,4.174,2.869,0.324,4.706,1.334,2.130,-0.745,0.425,0.375,2.526,1.030,-0.413,-0.957,-4.044,-6.636,-6.961
0:18:05.229,,4.671,3.900,1.995,3.945,0.897,1.131,0.822,-0.179,-1.884,2.253,2.013,-1.313,-4.175,-5.200,-4.870,-3.936
0:18:05.230,,0.341,2.338,1.605,3.610,0.001,0.646,-1.614,-2.616,-0.486,-0.188,2.323,-1.129,-0.782,-1.072,-2.813,-0.031
0:18:05.230,,1.003,0.772,-2.999,0.498,-0.567,0.588,-0.946,-2.259,-0.103,1.867,3.358,-1.802,1.757,-0.192,-0.242,-0.687
0:18:05.231,,1.055,-0.630,-3.495,-2.411,-1.715,-0.503,-1.637,-1.719,-0.201,2.076,3.172,3.168,3.368,-1.660,2.908,-1.768
0:18:05.231,,-0.520,-2.002,-1.546,-0.705,-0.408,-2.204,-1.281,-4.655,0.599,1.277,2.392,2.808,3.429,-0.029,1.640,1.074
0:18:05.232,,0.359,-3.349,-2.451,-0.488,-1.154,-2.625,-1.432,-3.446,2.931,1.460,0.689,1.384,3.095,0.844,1.400,2.872
0:18:05.232,,-0.887,-0.797,-1.214,-0.447,-0.321,-1.106,-1.924,-3.071,1.999,2.276,3.024,0.158,1.375,1.166,0.124,-0.276
0:18:05.233,,-0.442,-0.183,-0.426,0.843,0.066,0.457,-2.435,0.605,0.794,2.707,3.332,-0.429,-0.936,-0.928,-1.910,-1.022
0:18:05.233,,1.513,-1.289,0.966,5.111,0.065,1.823,1.030,0.159,-0.490,1.968,3.369,-0.375,-2.951,-2.628,-4.565,-3.747
0:18:05.234,,2.918,0.382,1.528,4.425,0.267,1.424,-0.051,-3.539,0.741,1.878,5.008,-1.025,-2.260,-1.252,-5.642,-4.680
0:18:05.234,,3.271,1.789,3.567,4.079,2.428,2.607,0.004,-2.278,1.660,2.568,4.002,-3.695,-3.830,-3.789,-5.358,-7.070
0:18:05.235,,2.411,4.216,4.593,3.963,5.278,5.374,2.778,-0.710,0.599,0.961,3.620,-5.137,-8.518,-6.226,-6.500,-6.770
0:18:05.235,,2.336,4.595,5.017,5.068,2.908,4.544,3.826,-1.095,1.061,3.819,2.649,-2.453,-10.559,-7.602,-6.517,-7.599
0:18:05.236,,4.136,5.058,5.453,4.139,4.010,4.206,2.012,-0.655,1.510,2.495,2.443,0.426,-8.034,-9.724,-9.204,-8.319
0:18:05.236,,3.571,2.791,2.697,5.746,4.080,4.002,3.998,-0.685,-0.451,0.527,0.306,-1.599,-5.563,-7.193,-6.254,-6.037
0:18:05.237,,2.780,0.941,3.243,3.885,3.931,3.979,1.710,-0.360,-0.357,1.936,0.252,-2.256,-3.472,-5.664,-4.717,-5.862
0:18:05.237,,0.674,1.647,2.290,3.179,2.043,2.860,0.487,-1.560,0.559,1.179,1.620,-1.218,-3.754,-2.303,-1.723,-5.872
0:18:05.238,,0.135,0.526,1.790,3.548,2.834,2.931,0.809,-1.790,0.091,1.264,0.920,-1.867,-3.369,-1.031,-3.102,-3.765
0:18:05.238,,1.518,0.171,1.614,3.055,1.938,3.020,1.004,-1.630,-0.919,1.418,-0.566,-1.469,-1.282,-3.614,-1.647,-2.660
0:18:05.239,,0.465,0.882,1.321,1.737,2.488,3.975,1.035,-1.932,-0.632,1.129,2.172,-0.541,-2.443,-5.360,-1.262,-2.993
0:18:05.239,,2.496,-0.047,1.678,3.124,3.529,2.288,0.292,-0.513,-0.397,3.770,0.243,-0.348,-4.381,-5.795,-2.330,-3.602
0:18:05.240,,3.230,1.902,0.320,2.535,2.829,1.669,1.356,-0.315,0.561,0.550,-0.106,0.351,-4.342,-3.335,-3.145,-3.934
0:18:05.240,,2.864,2.683,1.167,3.218,2.579,1.917,0.191,-1.011,-0.144,1.018,0.749,-1.957,-6.052,-2.890,-3.108,-1.319
0:18:05.241,,1.626,3.696,-0.222,4.721,1.065,2.740,0.082,-1.745,0.050,3.288,0.086,-1.375,-4.424,-3.263,-3.918,-2.319
0:18:05.241,,1.285,3.635,-0.143,3.938,0.830,0.283,-1.013,-4.091,0.380,0.507,2.502,-1.752,-2.353,-2.182,-2.294,0.338
0:18:05.242,,0.637,1.419,0.834,3.483,-0.258,-1.179,-2.802,-3.110,1.694,1.064,3.253,-1.990,-1.732,-0.761,-0.573,0.006
0:18:05.242,,2.698,-0.491,0.429,3.464,-1.048,-0.310,-1.697,-2.347,2.707,3.065,1.850,0.097,-1.314,-3.838,-1.431,-1.913
0:18:05.243,,2.714,0.237,-0.316,1.799,-1.224,-0.024,-1.683,-1.514,0.192,2.642,2.584,-0.305,-1.173,-0.788,0.935,-3.951
0:18:05.243,,1.327,0.195,1.122,0.890,0.470,-0.299,-2.076,-1.450,-1.083,3.091,2.746,-2.457,-0.265,-0.594,-1.179,-0.477
